4534.0290110145825
5682.975731250731
10514.12648130971
12435.638896899092
8784.481440124684
4660.070497998059
5716.36923746696
10485.06921351781
12456.090743075698
8869.105144632476
4700.773024651173
5698.6666558583565
10478.095469247755
12525.00117123141
9002.030968908188
4835.285822783211
5777.389499829948
10529.348019283774
12626.321628847318
9139.673011263969
4944.585853169662
5867.757602662755
10632.098988544822
12750.485569296548
9266.943844192487
5057.99860453589
5941.116027965072
10685.340843837363
12834.282259259495
9386.726842728478
5154.200512671532
5968.8545428341085
10645.398276495729
12810.030616525486
9421.617915823212
5175.16644897061
5814.269878181205
10236.115483774602
12368.516608299806
9339.18468227204
5392.559515542926
5857.878131613509
9905.443776302789
11957.982117889182
9086.65467341598
5229.70470544156
5685.926161518832
9733.268288763558
11851.006668926082
9033.479873356804
5177.759251327426
5618.692114197268
9699.91948603624
11872.30788139199
9051.987117765799
5137.0343729298565
5550.094610463931
9677.903017747763
11915.469099935186
9118.260040075784
5174.45119314804
5525.306525862995
9562.523312869467
11813.09811032988
9196.82642183619
5427.02590549301
5670.570513078036
9309.07688249074
11307.076967606185
8893.580304811037
5449.601167392871
5775.735470740256
9392.024206164386
11421.853175384185
9037.726704803314
5567.976006028176
5833.358267946037
9435.05131424085
11492.685853563054
9129.212394858885
5631.499663770159
5841.337840716582
9426.445892625557
11525.766435356909
9187.215171720407
5665.250797897673
5841.20373024985
9408.922124972598
11526.146415012649
9212.96438133292
5680.897019016388
5810.403026390437
9374.299272811328
11541.323249497802
9260.886521445098
5698.286676202617
5784.117374910996
9341.710429395489
11544.296031510357
9289.921437492543
5709.03786528562
5763.978453156764
9313.70369359299
11560.38928751818
9328.098217022207
5718.403246212393
5734.876481875955
9279.594931554191
11560.724563685008
9364.196284317528
5737.737505166234
5708.791996096611
9256.282062087306
11573.219188835525
9400.964903946508
5752.310842551094
5679.779431793622
9214.037265066776
11580.930540672605
9442.494445144468
5771.153363126918
5656.600672793469
9188.042186265253
11591.480564055511
9476.536151949902
5788.230095890773
5633.556024260048
9161.19774117443
11603.014064194449
9518.333914081326
5809.799529290143
5607.359779758427
9118.148281353508
11597.426128080622
9547.480588851045
5827.300945198649
5596.96621858671
9103.396130013005
11607.77498576343
9584.584484646855
5851.217311765828
5565.003224015621
9052.367097421538
11604.623389795232
9626.024618866995
5878.732309190311
5544.797247028023
9024.114492430032
11608.132613674714
9659.418125083224
5893.529164019724
5524.703028762702
8993.06791938161
11626.528099361432
9726.987448571617
5983.696101152433
5604.856384379433
9057.642109112992
11711.732949225063
9852.201921010246
6092.102061760672
5671.844562511988
9109.94519113841
11788.287673984489
9933.025828960637
6097.868811830141
5541.399781870817
8924.872747048468
11620.806052780874
9808.37015013339
5997.308313525715
5437.9335567872
8812.64463813837
11545.57008094431
9783.291492854536
5985.595999431133
5398.438024334672
8760.475666579685
11537.344638984758
9827.927926531784
6016.553165501734
5375.214561845608
8721.226003316166
11534.70713313903
9866.66349967283
6053.858226997641
5375.2369135900635
8696.1026425484
11541.5244151979
9905.108500135959
6076.67935808651
5351.789933656447
8660.675127586737
11538.238708762969
9942.324154654045
6110.5422509363
5351.789933656447
8636.535243575006
11544.988935588472
10000.50574547121
6158.576149770755
5306.997037768011
8529.78331205646
11527.107540024226
10236.07078028569
6823.585250805051
6557.9571196981815
10409.229744580955
13999.76927039257
13135.36025707248
9279.751393765378
7452.8092089664
9488.539038722402
11698.813640929895
10136.203186059378
6401.964295144594
5542.360906882394
8737.095741879433
11738.108007682325
10316.984095213902
6431.781522247973
5425.729504314602
8585.237990050076
11630.3949511522
10278.963777895426
6420.605650020319
5391.821907975902
8521.982553241558
11597.448479825078
10303.058958418245
6461.017603995515
5392.045425420454
8503.96704721058
11607.640875296698
10356.993717788902
6512.1136918203465
5397.432195834183
8487.784384224939
11624.181166193624
10413.700093472016
6564.841456990416
5402.774262759002
8476.38499455273
11643.671887358652
10478.78837332587
6635.674135169284
5435.832492808401
8474.686261974128
11669.26463475998
10550.9398044276
6711.826528528515
5470.075365313932
8486.957369680093
11699.4618415191
10636.926965347167
6803.401625561908
5528.055790430998
8520.97672474107
11770.89801679826
10762.789638375001
6943.32354585213
5631.723181214712
8606.852126938358
11888.244675188622
10924.571564742513
7108.12295772111
5747.996955871219
8696.594380926417
12009.972275492226
11082.218418385795
7256.739706604446
5844.467084940325
8743.957727427212
12055.122799291945
11139.572994658112
7297.039901857365
5800.970590230298
8619.302048599964
11898.682939849252
10980.56268460306
7089.59336156766
5530.670944532269
8318.000533342425
11633.770064564951
10784.359071774374
6919.854214174058
5341.910462607201
8124.277964148279
11477.665481289087
10686.749003738047
6846.540492360651
5246.446162038585
8022.801044321185
11419.573297449744
10684.893808948256
6861.069126256601
5228.743580429981
7968.039270405683
11382.11177374265
10710.240687160574
6907.493699490274
5238.712458457048
7936.858586890529
11361.972851988417
10737.040428762488
6942.049496418178
5229.458836252551
7912.182261011871
11365.638538079089
10782.347414773396
6997.459470922884
5239.405362535163
7885.114298476494
11360.363526387635
10824.927487960755
7040.82185516618
5235.94084214459
7842.444818311313
11342.884462223587
10853.470665630182
7073.030718926278
5230.889347897691
7802.904582369874
11306.607580972623
10867.440505914748
7112.906231034545
5228.229490307509
7761.307985938548
11292.19070579895
10900.454032475238
7150.859493119657
5217.545356457872
7721.879508719387
11265.815647341688
10926.78438744359
7180.430851034028
5210.817481376825
7679.657063443311
11234.925536504452
10941.827111462011
7222.228613165452
5211.979772088501
7634.059504754485
11196.636998252512
10958.233291892206
7263.892264830144
5216.8077488908475
7608.1314811863285
11191.540800516701
10987.93876027331
7303.566611238314
5219.93699311459
7565.372594043326
11145.29504123867
11005.641341881912
7337.854187232756
5215.690161668082
7529.900375592754
11130.945221298363
11033.022228839664
7383.094118010297
5234.443275266084
7501.111328734319
11108.90640126543
11054.926938405864
7426.836481909333
5239.025382879422
7476.256188900017
11109.241677432261
11126.720741596311
7561.192817830184
5366.452678019128
7550.39692525827
11169.88196013951
11231.058684713684
7681.668720444289
5442.627423122814
7582.315216340449
11195.094727885096
11261.725278106365
7661.328632989959
5327.180663011153
7413.51484221397
11020.594658922513
11143.886881337987
7580.9517599286755
5233.906833399157
7290.379082009684
10925.309172309539
11113.086177478574
7594.251047879583
5221.099283826266
7235.773770305368
10890.194581770253
11132.666305621422
7634.104208243395
5225.100246083766
7203.073168167254
10866.166456480796
11160.82950363511
7680.439374499247
5233.1245223432215
7170.75254568488
10836.997429966621
11174.620529964033
7720.8960319633525
5244.65802248216
7148.981946585411
10821.462967570182
11194.6923964849
7759.542198126579
5252.347022574785
7122.003391027855
10806.442595296216
11229.784635279731
7809.900678384385
5271.56952280635
7105.373693153107
10789.27645555454
11228.778806779243
7804.379797503924
5295.485889373528
7313.7590067099345
11443.891995417118
12556.852407080223
9778.977606174662
7807.777262661131
10171.29542485421
13839.864890559304
13433.286658917268
8831.330696503008
5410.597373318359
7043.772285434281
10900.185811541774
11570.715793456531
8207.24763956638
5492.762385936068
7149.674850663526
10865.048869258031
11501.112461222705
8138.068990477203
5396.538126055972
7040.5759859771715
10789.589379976915
11478.738365022942
8154.341060440667
5392.894791709757
7007.405997205496
10778.882894382823
11520.916106810106
8202.039683108293
5408.272791895008
6998.24178197882
10776.871237381845
11561.976261374506
8261.227102425946
5431.69742008417
6987.781165573736
10772.110315812864
11596.509706557956
8322.962620611504
5472.869333370845
6984.696624838904
10783.733222929624
11655.78653285343
8403.004217505959
5516.388179825328
6989.412842918974
10791.936313144723
11717.164423127702
8493.864058716781
5575.754413098623
7015.497328698317
10828.503767073604
11805.856145126361
8598.358464045343
5659.059364683552
7063.330061832674
10895.849573117444
11936.323277511989
8767.315300383008
5799.875354751987
7169.098516595187
10997.818231322555
12076.759287924682
8924.76098832619
5919.971277710352
7237.539558117338
11071.62369151398
12193.591856192572
9051.338917176596
5995.363711758103
7243.082790742254
11029.960039849288
12133.800939774626
8959.786171887657
5829.1561399884395
6987.825869062647
10746.875196322822
11882.120297207868
8740.247337847632
5589.657198149825
6725.885775790904
10503.17412652661
11713.588144014853
8626.253441125566
5476.8479438838895
6598.436128906743
10402.747738688915
11678.473553475565
8631.260231883554
5452.797466849979
6541.550939267986
10347.494226395396
11663.252015501503
8648.381668136319
5450.249367982075
6495.104014289858
10308.244563131877
11678.808829642396
8694.627427414349
5475.708004916669
6477.848467570361
10282.674167475006
11695.304417050413
8743.130712882366
5500.361979050873
6459.073002227903
10261.529417220285
11716.5162225385
8796.953713530746
5516.7011042477025
6418.728103486073
10215.529527131263
11722.193565630147
8821.451225453762
5525.172415396263
6389.402614760711
10175.229331878345
11726.08276916537
8868.65810974337
5543.47849410516
6361.574692913854
10145.546215241697
11724.540498797955
8889.355825108985
5547.814732529489
6313.384331868212
10084.369490667521
11709.453071290622
8915.909697521889
5552.687412820746
6281.153116363659
10047.243243127257
11716.493870794044
8948.319726982085
5561.918683280788
6243.602185678743
10003.143251316937
11711.55413526942
8970.49265748175
5575.732061354168
6207.347656172235
9957.366878672467
11708.916629423695
8999.460518295828
5578.593084644447
6166.98040568595
9906.96369492575
11713.923420181683
9051.31656543214
5603.649390178846
6141.991155384917
9874.19603755427
11711.4647282916
9077.557513422671
5617.798044419056
6112.643314915099
9827.771464320596
11712.515260281
9113.27560106225
5627.141073601374
6080.725023832921
9786.89012371184
11712.26939109199
9146.937328211943
5651.795047735578
6058.306224144248
9751.417905261267
11711.017693402493
9180.442593150448
5663.663824041346
6026.7902644622645
9712.592925142399
11726.552155798932
9233.63974495408
5698.286676202617
6015.100302112139
9695.784413312009
11757.509321869531
9329.528728667347
5806.513822855213
6095.901858318074
9755.016536118572
11839.316706575955
9436.034790996884
5894.758509964766
6135.084466348228
9779.603455019409
11893.54203862453
9471.842285614286
5834.118227257518
5977.772888871777
9604.701054656633
11743.025391462494
9371.393546032137
5755.261272819194
5863.756640405255
9470.59058792479
11677.3559662528
9363.570435472779
5748.935729138342
5834.073523768607
9436.973564264008
11681.133411065748
9405.994046448952
5772.226246860772
5805.329180399082
9389.386700318659
11668.035288814937
9441.421561410614
5799.070691951596
5792.320465126093
9368.644281464134
11687.436603002145
9486.057995087862
5828.597346377057
5776.070746907085
9328.634658889134
11689.381204769756
9536.349420112303
5866.461201484347
5760.648043232924
9301.432585887025
11696.131431595259
9577.856609565808
5893.730329719821
5746.23116805925
9267.614396526145
11702.188754342647
9627.678647956687
5936.109237207083
5726.449874216303
9186.388157175561
11668.325861492856
9765.633614734843
6351.382297442234
6598.771405073572
10691.219352629108
13788.72409924556
12463.511522234861
9194.658302624024
8481.123564377256
10790.282284055029
12196.855210883048
9779.536399786044
6115.616096927655
5897.753643721777
9376.109764112207
11923.046341305535
9965.54761714311
6204.75485381542
5806.558526344124
9224.386122749582
11810.058273083958
9919.279506120623
6182.023129704372
5754.18838908534
9157.263834150295
11784.040842537981
9940.737180797718
6201.737368313953
5738.363354010982
9125.345543068117
11794.47910719861
10000.952780360316
6252.922863116606
5741.023211601164
9105.318380036162
11804.71620615914
10046.706801260329
6296.799337482374
5739.391534255927
9084.687719903914
11825.950363391681
10112.644447403485
6355.919701566661
5754.523665252169
9075.724670377334
11851.900738704293
10188.863895996083
6433.457903082121
5792.4098721039145
9096.601199698593
11900.471079405675
10275.186333082478
6520.897927391283
5843.952994817852
9129.011229158787
11972.51075178513
10403.664160211583
6646.782952163572
5931.415370871469
9201.185012004973
12076.803991413593
10558.539397542405
6810.330666343054
6056.696898543465
9297.901010263087
12197.659873683438
10710.933591238689
6954.633528546516
6138.5489867388
9344.347935241216
12269.923063507445
10812.52226978806
7023.476901468862
6124.802663898786
9245.843797426676
12139.21006193281
10684.044442658955
6857.314033188109
5883.493230759291
8960.568482943592
11875.079497704446
10473.513361634417
6670.721670475205
5677.700719559279
8755.424172332785
11724.361684842312
10390.588389705228
6609.92492555677
5593.546401685047
8654.28252867252
11659.49692243301
10387.883828626136
6621.681943140262
5567.260750205606
8614.854051453358
11649.505692661489
10413.118948116178
6649.733382431672
5556.889540778344
8576.654920179239
11639.20153846759
10457.062477715312
6698.437833599786
5566.567846127492
8562.103934538834
11646.063524015372
10501.162469525632
6743.2083777437665
5564.980872271165
8523.837748031348
11643.224852469546
10550.962156172056
6793.298637068109
5563.975043770676
8490.243076115023
11625.186994694113
10570.51993257045
6813.7057797558045
5554.274386677073
8454.569691964352
11607.305599129868
10594.816278793369
6842.964213247802
5534.627203300858
8405.060577995846
11584.685633741097
10618.620886638271
6873.429640940385
5526.893499719322
8370.862408979227
11568.726488200009
10646.739381163046
6900.117623820022
5507.961572165677
8324.817815401295
11547.179406545092
10670.029898885477
6929.309002078653
5492.762385936068
8278.97438752346
11527.688685380064
10694.505059064039
6959.61796756005
5488.493202745104
8250.185340665024
11519.440891676057
10732.12304498232
6999.649941879505
5479.440746240705
8214.2884390698
11528.918031325107
10790.528153244037
7004.992008804323
5378.097936880343
8133.866862519606
11594.430994323611
10922.828128675
7005.2378779933315
5232.163397331643
8039.631907896031
11687.168382068681
11087.158153910417
7029.511872471795
5127.959564681001
7983.953712457862
11796.356653732855
11237.138359205528
7043.973451134379
5034.641031580095
7934.399895000446
11829.258421571067
11274.75634512381
7019.610049678094
4952.766591640305
7862.98607146574
11802.123403802325
11295.163487811506
7052.556521005216
4952.498370706841
7806.905544627374
11778.922293057716
11353.121561184116
7145.673888406025
4984.193144344466
7769.3769656869135
11711.397673058233
11348.24888089286
7190.4891360389165
5004.779100987805
7740.297346150559
11709.162498612703
11420.6461811836
7282.243047027951
5043.9393572735025
7717.923249950797
11689.381204769756
11407.548058932789
7256.896168815633
4977.465269263419
7681.9145896332975
11833.348790806389
11579.477677283012
7347.0407542038865
4962.087269078168
7607.148004430295
11659.78749511093
11466.690774761531
7271.313043989307
4853.189570091912
7490.33778790686
11617.743863790496
11502.788842056852
7299.878573403189
4833.788255904706
7451.4681042990815
11614.480509100022
11554.466075237522
7359.669489821135
4848.585110734119
7434.905461657699
11611.4406718541
11593.358110589757
7404.238868265018
4842.594843220097
7403.32244674235
11617.766215534952
11642.934279791627
7441.990964650031
4829.8096453916605
7372.6335016052135
11625.052884227382
11699.081861863358
7494.405805397726
4832.603613448574
7348.40421061566
11623.890593515705
11747.428685120189
7530.056837803941
4825.898090111982
7321.872689947211
11636.653439599686
11833.661715228764
7636.540548389024
4871.495648800808
7312.328495064795
11633.59125060931
11841.663639743763
7632.718400087167
4822.5900319325965
7231.079903969754
11627.77979705093
11927.024951818581
7686.451993757724
4811.838842849594
7186.689339481514
11601.382386849213
11933.46225422171
7726.8192442440095
4807.659066636452
7165.7234031824355
11660.949785822606
12034.581546137519
7815.533317987123
4840.739648430306
7140.957670325955
11637.882785544729
12065.650470930395
7866.1153156894825
4848.383945034021
7097.349416893651
11612.424148610133
12131.11873043999
7991.329788128113
4928.313783206199
7076.472887572395
11501.313626922802
12078.525075736652
7977.091726910082
4890.181707165445
7023.499253213317
11514.434100918068
12140.439407877851
8038.603727651087
4911.169995208978
6985.568342872661
11449.211710597481
12138.248936921233
8085.452984029411
4920.937707535948
6943.770580741237
11399.97081756244
12141.78051254517
8106.12834765057
4873.4849540573305
6843.098323714534
11386.470363911434
12442.567937680238
8912.132252708943
6266.177447578603
8790.44935589425
13881.863818390826
15252.40573315689
11066.23692110025
6707.579697082007
7440.739266960534
11309.42390077399
12210.445071511875
8409.597982120275
5148.098486435233
6999.359369201586
11411.16904153455
12304.68002613545
8372.583493302285
5015.843214493181
6837.488035856251
11301.354921025626
12274.728688565338
8386.486278353486
5004.019141676324
6781.34045378452
11266.41914444198
12305.171764513465
8438.655249912174
5024.8062640197595
6761.2909390081095
11246.123760476561
12344.287317310253
8521.580221841363
5077.914008845569
6759.011061073668
11237.920670261463
12384.296939885253
8589.41776626322
5109.184099338544
6744.504778922174
11228.331771890136
12431.235603241397
8680.456421429684
5185.090623508767
6758.38521222892
11294.7164529224
12616.933896176088
8896.910714734879
5356.908483136712
6821.68535252635
11254.03627801374
12601.600599479747
9046.287422929696
5541.019802215076
6916.456749016852
11453.749114721908
12903.818536259954
9313.010789514874
5723.700609648301
7004.634380893038
11321.493842779857
12799.7711658205
9372.801705932821
5822.763541074221
7068.292149101752
11407.995093821895
12938.620202376867
9491.02008235694
5891.852783185575
7092.812012769225
11377.306148684758
12875.476524290625
9465.717907633532
5837.113361014529
6970.704432809882
11225.6495625555
12742.640106992736
9312.630809859134
5600.676608166291
6680.511734546631
10970.593806575991
12549.319869198784
9128.251269847307
5400.270867380008
6482.609389139341
10822.401740837306
12480.007109642876
9099.194002055407
5349.130076066265
6408.1557283587135
10776.580664703926
12492.501734793394
9126.530185524249
5345.978480098067
6369.330748239845
10751.233786491608
12517.200412416509
9177.380404160072
5363.68106170667
6342.73217233803
10723.629382089304
12539.127473727165
9233.930317631999
5397.141623156264
6330.72928556553
10709.033692959989
12565.39077346215
9294.972931739441
5426.377704903806
6306.544698064888
10686.346672337851
12598.58311397828
9346.292537008827
5441.442780666684
6275.229904083002
10649.980384109067
12615.033997897388
9395.086395154762
5454.026812795021
6233.320383229302
10621.973648306566
12643.420713355627
9446.495407401968
5471.908208359267
6198.116385712193
10561.66864176615
12628.601506781759
9479.151306051172
5482.9499701201885
6161.9736149279615
10523.111882580744
12641.006724954454
9525.575879284845
5508.252144843596
6127.998963355895
10473.133381978678
12643.64423080018
9568.692394339132
5523.853662473401
6096.952390307473
10428.675762257071
12637.02811444141
9621.71073218712
5574.837991575956
6076.142916219583
10357.217235233455
12603.768718691912
9667.44240134268
5623.274221810606
6053.9699857199175
10301.829612473204
12599.723052945501
9723.277058992036
5661.965091462743
6033.33932558767
10265.865655644615
12616.620971753713
9773.054393894005
5677.611312581457
6001.622200205588
10243.849187356138
12651.60145182627
9824.977496263684
5688.831888298022
5965.300615465715
10206.186497948946
12659.826893785823
9863.914235104829
5699.784243081122
5935.863368018076
10181.688986025929
12681.955120796576
9908.885944948906
5722.515967192169
5905.085015903118
10139.935927383414
12693.868600591255
9967.983957288738
5762.145610111429
5883.850858670576
10097.534668151697
12688.884161577722
10001.042187338137
5777.434203318859
5855.710012401344
10057.480342087787
12698.763632626968
10064.901121246949
5821.601250362546
5828.284421954682
9998.918771614883
12686.380766198727
10115.170194526934
5872.138544575995
5821.981230018286
9935.998610973193
12644.985335467498
10154.799837446195
5938.41146688598
5834.63231737999
9907.187212370303
12642.370181366228
10189.847372752116
5965.188856743438
5816.885032282476
9873.413726498333
12641.677277288114
10226.951268547926
5987.741766898843
5788.163040657407
9830.543080633055
12648.628669813714
10272.593530725662
6017.357828302125
5771.242770104739
9785.683129511253
12635.575251051814
10318.66047604805
6062.15072419056
5762.637348489446
9747.863977892874
12621.270134600418
10345.99665951689
6085.77651807982
5741.202025556806
9713.330532709424
12647.22050991303
10402.613628222183
6100.059282786761
5702.354693693483
9683.848581772874
12678.959987039565
10460.191721939054
6126.277879032837
5675.21967592474
9658.948738449662
12699.456536705082
10513.433577231595
6138.638393716621
5638.473408040215
9624.86232815532
12712.577010700346
10556.99712717499
6148.316699065769
5594.351064485439
9582.6622346237
12740.04730463592
10616.989209293033
6168.500324308911
5564.735003082157
9589.859496338308
12830.191890024173
10689.610027028326
6170.690795265531
5517.014028670076
9566.256054193504
12857.885701404299
10739.789693330491
6203.279638681369
5511.470796045161
9533.51074856648
12841.211300040639
10761.046202307487
6221.071627267794
5481.765327664057
9471.685823403099
12808.130718246784
10795.713757957668
6251.537054960377
5453.2445017390855
9384.961054916508
12736.918060412176
10811.337627331928
6287.836287955795
5423.337867657884
9377.361461801704
12842.150073307763
10903.270352276606
6275.162848849636
5355.67913719167
9353.04276383433
12885.043070917496
10961.675460538323
6309.048093443882
5332.76859912498
9317.41408317257
12881.690309249201
10994.107841742974
6337.099532735292
5308.651066857704
9238.177149078507
12832.20354702515
11016.258420498183
6348.767143340962
5286.299322402397
9196.446442180448
12814.500965416548
11032.441083483825
6380.081937322848
5276.66572054216
9159.275491151273
12815.730311361589
11106.112433208518
6466.650243598252
5319.245793729519
9182.364843173606
12892.910884965764
11236.400751638503
6562.516875567064
5364.284558806963
9210.528041187292
12925.142100470317
11257.076115259662
6533.459607775165
5240.031211379911
9060.190207980897
12813.450433427148
11202.493155299802
6483.816383339928
5158.961434240513
8958.847398620534
12752.05019140842
11195.295893585193
6498.702645147163
5132.0499339163225
8899.212944413775
12740.360229058293
11247.978955266351
6544.05433464698
5121.589317511239
8859.42683928333
12725.831595162344
11285.32872025117
6589.696596824718
5105.6972272035155
8807.190812491275
12711.414719988672
11329.696932994955
6624.766483875094
5085.133622304634
8747.0646199065
12685.441992931605
11370.421811392524
6670.676966986295
5078.472802456952
8712.575878211961
12684.145591753197
11411.325503745737
6719.0237902431245
5072.303720987287
8657.1435519628
12659.826893785823
11464.366193338179
6788.068328865568
5088.464032228474
8594.98335063259
12567.670651396591
11469.663556774087
6979.913351525468
5591.110061539419
9610.08782507036
14214.793052052624
13740.310220755366
9734.140006797315
8152.821141817706
10832.19180490873
13683.3803276277
11790.679310641208
6941.825978973625
5221.389856504185
8722.455349261207
12793.847953539844
11796.66957815523
7125.199690484964
5201.161527772132
8524.821224787382
12587.139020817163
11714.862193448806
7122.629239872604
5180.329701939786
8456.2460727985
12544.715409840992
11736.096350681348
7150.837141375201
5143.941061966546
8410.872031554227
12544.715409840992
11793.00389206456
7228.6435638241255
5188.488088665973
8405.462909396043
12544.693058096536
11841.373067065844
7305.935896150577
5234.398571777174
8399.204420948556
12540.9603167725
11900.538134639042
7385.8433825782995
5254.47043829804
8364.715679254017
12510.070205935264
11950.114303840912
7496.640979843257
5324.9901920545335
8367.219074633012
12514.33938912623
12017.147185462378
7564.478524265114
5340.167026539687
8355.372650071698
12549.476331409971
12134.270326408188
7745.125322952906
5491.220115568652
8425.802996850372
12616.509213031437
12270.079525718633
7950.157874841438
5659.841675739489
8505.330503622354
12635.530547562903
12353.742105214847
8104.876649961073
5795.360302372015
8581.281731281488
12713.247563034007
12476.050850874288
8239.411799837566
5880.900428402475
8575.738498656572
12665.526588621926
12451.12865580662
8186.639331178586
5724.37116198196
8354.925615182592
12453.922623863535
12268.0455169732
7977.8740379660185
5467.057879812465
8098.3275888356675
12275.510999621272
12162.679393610882
7866.495295345223
5307.220555212564
7956.19284584437
12201.862001641037
12143.702762568328
7855.230016139748
5254.47043829804
7878.162905950893
12163.729925600283
12178.415021707418
7879.660472829399
5222.865071638235
7834.420542051857
12193.41304223693
12256.064981945156
7936.702124679342
5229.235318807998
7818.5955069775
12229.555813021161
12338.900546896524
8033.753399104286
5256.392688321196
7757.083506236495
12124.323800125576
12316.682912907949
8062.251873284802
5249.016612650945
7739.492683350169
12188.942693345869
12403.45238488345
8101.926219692972
5225.100246083766
7697.627865985378
12168.513198913717
12414.896478044568
8075.014719368783
5152.747649281937
7628.5609756184795
12142.741637556748
12424.552431649261
8080.289731060235
5129.121855392677
7584.25981810806
12110.800994730114
12441.472702201927
8105.547202294732
5105.116081847677
7530.392113970771
12079.754421681693
12451.732152906914
8126.5578420827205
5089.179288051044
7490.695415818145
12061.224825528245
12488.165496369063
8183.241866021379
5098.455261999996
7459.402973580715
12061.649508672896
12533.114854468688
8233.62269802364
5097.248267799409
7406.429339221638
12017.638923840395
12549.409276176606
8266.591521095219
5083.948979848502
7359.177751443119
11991.353272360955
12575.136134044664
8306.824661114772
5082.71963390346
7309.154547352141
11946.292155539055
12589.217733051508
8345.157902855624
5081.758508891882
7259.332508961262
11905.746091097128
12614.0281693969
8402.959514017048
5092.107366574689
7219.211127663985
11878.20874192819
12636.111692918741
8444.489055215008
5096.510660232385
7176.742813198903
11840.590756009908
12655.915338506144
8491.606532526795
5103.7526254359045
7139.214234258442
11808.806575394461
12686.26900747645
8544.200187230133
5107.127738848655
7089.325140634196
11777.33531920139
12705.715025152567
8585.908542383737
5125.836148957747
7066.325195589686
11746.355801386333
12730.592516731325
8634.098903429378
5126.976087924968
7022.046389823722
11717.142071383247
12754.464179809593
8683.093927275411
5135.782675240359
6972.224351432843
11666.291852747423
12766.936453215654
8730.412570287297
5149.238425402454
6937.51209229375
11638.77685532294
12790.986930249564
8783.073280224
5159.900207507635
6900.788176153681
11605.852735740273
12809.650636869746
8823.105254543454
5167.9691872560015
6866.098268759045
11571.498104512466
12833.29878250346
8882.158563394376
5191.594981145261
6828.457931096307
11539.222185519004
12852.834207157399
8929.834834317546
5193.785452101881
6775.886628137426
11491.009472728905
12872.079059133419
8986.340044300561
5219.109978569744
6751.322060981043
11470.959957952495
12901.784527514521
9043.851082784067
5239.181845090609
6716.8556710309595
11430.033913854828
12923.13044346934
9112.895621406511
5263.500543057984
6671.07929838649
11369.281872425303
12924.628010347846
9150.737124769346
5271.010729194967
6629.125074043879
11325.85243294864
12938.396684932315
9193.585418890169
5282.879505500735
6593.719910826673
11302.293694292748
12971.074935325973
9254.605681253157
5307.9134592906785
6566.070802935458
11281.640682416044
13023.534479562579
9359.904749382109
5405.635286049282
6621.436073951254
11338.01178193233
13133.415655304869
9492.137669579706
5493.120013847353
6646.112399829913
11351.936918727984
13174.542865102634
9504.855812174776
5403.511870326027
6476.28384545849
11163.735230414299
13039.337162892482
9433.553747362346
5332.835654358346
6369.822486617862
11069.835551957554
13017.857136470931
9458.900625574664
5341.0163928289885
6338.306526935879
11035.637382940935
13035.6267733129
9512.7459779675
5360.484762249561
6294.474756059022
10978.573379346535
13040.924136748808
9571.75458332951
5398.907410968234
6274.760517449441
10949.963146443743
13062.806494570554
9636.596993994355
5427.137664215286
6242.886929856173
10911.8757738919
13078.139791266894
9686.396680640779
5451.74693486058
6210.923935285085
10877.163514752809
13103.106689823473
9748.355716270891
5483.352301520384
6196.328246155768
10854.811770297501
13097.988140343206
9732.30716375198
5467.616673423848
6289.557372278854
11300.527906480778
14158.578414747528
11464.50030380491
7727.199223899749
8990.318654813607
13939.844243507892
15650.892633306103
11216.328885117637
5862.706108415855
6106.429529956524
10854.43179064176
13392.293559586235
10202.610218836096
5793.1698314153955
6238.4612844540225
10834.292868887529
13300.673759063931
10126.48017722132
5710.960115308776
6132.983402369428
10740.616707875337
13270.38714532699
10147.736686198317
5721.711304391779
6093.107890261161
10700.338864366873
13289.989625214295
10210.321570673177
5760.625691488468
6076.657006342055
10665.224273827585
13314.263619692758
10298.61096127164
5827.904442298943
6070.331462661203
10638.022200825477
13335.229555991837
10371.298834240299
5883.761451692754
6076.098212730672
10628.34389547633
13376.110896600592
10454.983765480967
5936.153940695995
6066.308148659247
10613.77055809147
13431.520871105298
10576.420793106652
6033.227566865393
6095.901858318074
10620.453729683606
13486.774383398819
10685.58671302637
6138.034896616327
6145.478027519945
10660.083372602865
13595.225047495967
10854.945880764233
6292.284285102402
6245.725601401998
10745.154111999764
13727.681485138117
11036.106769574497
6461.844618540361
6356.232625989035
10827.117958917375
13835.238079457054
11167.177399060416
6569.043584948014
6395.348178785823
10818.736054746634
13849.923175564192
11201.710844243866
6531.157378096268
6238.371877476201
10586.0990984558
13627.165690322601
11007.094205271507
6311.864413245251
5957.812781073187
10304.042435174279
13409.996141194839
10850.028496984065
6160.5654550272775
5779.825839975577
10125.206127787367
13304.898238765983
10827.319124617474
6146.372097298157
5714.469339188259
10046.639746026964
13274.701032006864
10864.668889602292
6177.84335349123
5678.55008584858
9974.622425391964
13259.032459143695
10922.761073441634
6231.129912272681
5665.02728045312
9923.861613733961
13255.679697475398
10982.015547992653
6280.281398329902
5648.710507000746
9887.964712138739
13270.34244183808
11042.253499299706
6322.436788372611
5629.353896302449
9836.913327802817
13262.876959190007
11091.315578379104
6363.318128981367
5610.1537478153405
9785.012577177595
13257.981927154295
11150.860625608042
6409.049798136926
5588.941942327255
9738.140969054815
13244.347363036557
11183.06948936814
6439.649336296241
5558.297700679029
9670.616349055332
13224.610772682521
11232.355085892092
6480.351862949356
5535.387162612339
9620.816662408908
13213.52430743269
11271.51534217779
6510.750235408573
5508.0733308879535
9555.728382555055
13191.08315599956
11299.723243680388
6533.169035097246
5477.540847962004
9502.799451684887
13176.286301170148
11345.030229691296
6569.44591634821
5451.836341838401
9450.831645826298
13167.166789432382
11389.77842209082
6611.467195924187
5435.452513152661
9398.86383996771
13150.961774702284
11433.274916800847
6650.359231276421
5413.525451842004
9349.7570573994
13137.371914073457
11470.89290271913
6686.569057294018
5397.812175489924
9296.202277684484
13121.12219585445
11505.873382791684
6719.582583854507
5371.34771005484
9231.985715864386
13095.93177985332
11546.106522811238
6761.045069819102
5361.602349472327
9191.618465378102
13084.979425070218
11583.09865988477
6791.1081661114895
5340.211730028597
9145.819740989178
13073.691794120288
11642.599003624799
6854.810637809114
5336.38958172674
9095.058929331175
13055.609232855944
11680.485210476543
6892.473327216307
5322.419741442173
9044.476931628817
13037.34785763596
11719.98074292907
6939.255528361265
5316.38477043924
9001.82980320809
13022.707465017733
11754.08950496787
6974.839505534113
5299.129223719743
8946.263366492196
12994.745432704143
11800.178802034712
7030.651811439016
5289.607380581782
8893.893229233412
12980.529723230567
11842.870633944349
7077.456364328428
5282.6112845672715
8853.548330491583
12969.912644614298
11892.379747912855
7126.7419608523805
5272.597703051294
8807.168460746821
12945.057504779996
11927.583745429964
7179.5144295113605
5270.742508261503
8761.392088102351
12925.23150744814
11965.492304026164
7222.09450269872
5259.18665637811
8703.188145540733
12903.349149626392
12015.828432539516
7280.231390026974
5253.643423753193
8654.863674028358
12876.124724879828
12047.277336988132
7315.033056143887
5235.694972955582
8598.202001834155
12852.744800179578
12090.170334597868
7375.718042340046
5236.097304355777
8550.033992532968
12828.962544079131
12122.289791380143
7414.699484670101
5225.41317050614
8495.562791295384
12806.275523456994
12173.788210605171
7482.447622114137
5227.111903084744
8453.697973930595
12789.601122093336
12214.311923302643
7534.594241928368
5214.79609188987
8390.107260955247
12749.032705906953
12239.412932325951
7576.704928482167
5211.108054054744
8345.98491740047
12724.557545728392
12283.244703202809
7639.51333040158
5204.938972585079
8291.938399307537
12709.917153110166
12329.781035158758
7691.212915326705
5233.459798510051
8296.676969132062
12753.592461775836
12455.46489423095
7834.666411240865
5334.065000303388
8362.122876897201
12824.626305654801
12563.289709483352
7950.2249300748035
5359.30011979343
8276.850971800206
12701.155269283685
12461.969251867444
7848.79271373662
5199.239277748976
8102.306199348713
12574.040898566354
12412.102509987655
7826.26215532567
5157.709736551015
8026.4443786674
12524.28591540884
12432.666114886537
7873.625501826466
5153.64171906015
7970.900293695962
12491.85353420419
12465.970214124944
7923.715761150809
5157.530922595372
7929.638973431465
12471.80401942778
12506.0021884444
7982.791421746186
5163.007099986923
7881.538019363645
12437.002353310867
12538.836901049246
8046.337431232623
5171.858390791224
7833.638230995922
12404.681730828492
12572.543331687848
8103.3120278492015
5179.748556583948
7748.478084621202
12312.592543672627
12631.037846927387
8425.668886383639
5899.765300722755
9033.591632079082
14182.070098170054
15105.688882552253
11266.352089208614
8141.444103889955
9633.37834279279
13063.231177715204
12763.471932825081
8323.811986900806
5398.795652245957
7906.370807453491
12501.71065350898
12883.701966250179
8478.44135504262
5353.354555768318
7738.933889738785
12344.35437254362
12820.804157352944
8488.432584814142
5335.786084626447
7655.539531176035
12279.601368856594
12839.914898862231
8551.956242556125
5351.834637145357
7592.038225178508
12212.054397112655
12885.26658836205
8690.447651201208
5437.59828062037
7528.648677903257
12087.711642707784
12947.85147283691
9130.70996173739
5973.70487138091
7653.103191030406
11672.617396428275
12509.28789487933
9190.232657221874
6473.065194256926
8067.54923672071
11715.935077182661
12402.178335449498
9157.196778916928
6449.9534904901375
8001.768052788741
11661.061544544882
12412.303675687752
9202.615523650113
6475.099203002358
7985.585389803099
11653.506654918989
12460.27051928884
9294.88352476162
6544.501369536087
8025.036218766716
11715.420987060188
12585.35088126074
9457.604224396257
6676.264903100122
8120.075836190682
11813.43338649671
12724.669304450668
9615.09461582835
6799.1547941154
8193.098985326169
11877.024099472059
12827.86730860082
9732.553032940988
6860.353870434031
8169.719060625918
11807.130194560314
12754.888862954243
9643.48133128659
6700.717711534227
7923.559298939622
11534.505967438934
12513.221801903463
9436.906509030641
6486.655054885752
7686.049662357529
11315.749444454843
12367.421372821496
9343.856196863198
6392.353045028812
7572.525152269024
11219.748702019298
12332.753817171315
9354.89795862412
6391.056643850404
7526.1899860131725
11168.786724661199
12338.408808518507
9397.656845767122
6403.707731212107
7497.937381021665
11131.749884098756
12347.327154556175
9450.697535359566
6438.419990351199
7480.972406980087
11112.750901311743
12375.646814781048
9506.621599986745
6463.453944141143
7457.8607032132995
11082.754860252722
12391.203628921941
9558.27648142296
6492.8017846109615
7434.100798857307
11047.908490646898
12402.513611616328
9603.114080800306
6516.874613389327
7409.51387995647
11008.994103550209
12412.907172788046
9649.650412756255
6535.203043842679
7378.109678996763
10976.31585315655
12417.869260057123
9687.223695185625
6551.452762061687
7340.156416911652
10928.125492110908
12417.668094357026
9726.339247982412
6566.271968635556
7312.6414194871695
10890.686320148268
12420.998504280866
9765.521856012567
6583.1922391882235
7274.911674846611
10844.440560870238
12424.328914204707
9802.379882619367
6595.709216083195
7245.407372165606
10805.146194117808
12421.579649636704
9833.80643532353
6608.114434255891
7208.549345558804
10758.408696461762
12431.50382417486
9868.786915396086
6619.379713461365
7176.385185287618
10727.74210306908
12436.9352980775
9908.125985637425
6632.634297923362
7142.410533715551
10683.619759514304
12434.253088742864
9933.986953972215
6645.330088773977
7114.806129313247
10646.515863718494
12439.639859156592
9977.125820770958
6661.311586059522
7071.376689836585
10599.95718001809
12444.020801069833
10015.593172978542
6681.94224619177
7063.866503699602
10580.33234838633
12454.771990152836
10054.060525186125
6693.162821908334
7026.740256159336
10538.758103699458
12462.03630710081
10093.80192682766
6712.050045973068
6993.436156920929
10498.435556702085
12468.786533926313
10135.666744192451
6730.289069448599
6972.671386321948
10476.396736669152
12483.918664922556
10176.123401656558
6755.501837194185
6954.633528546516
10445.998364209934
12494.826316216746
10225.587812136151
6786.302541053598
6935.723952737326
10421.813776709292
12522.207203174497
10278.762612195327
6804.899192440414
6912.411083270441
10395.103442085201
12540.379171416662
10338.195900701989
6848.820370295092
6907.024312856712
10380.664215167071
12571.291633998351
10389.068471082268
6868.802829838137
6887.399481224952
10361.553473657785
12593.44221275356
10436.856500727714
6888.271199258709
6857.783419821671
10320.649781304572
12595.677387199092
10467.92542552059
6892.65214117195
6822.646477537928
10284.685824475984
12600.326550045795
10506.54923993936
6911.628772214505
6789.811764933082
10241.770475121793
12601.220619824007
10535.405342031163
6915.383865282997
6751.992613314702
10196.955227488903
12594.82802090979
10568.105944169278
6935.343973081586
6718.062665231546
10146.037953619714
12586.736689416968
10595.196258449108
6939.791970228192
6678.634188012385
10106.43066244491
12590.82705865229
10629.260316998998
6952.666575034449
6641.597347449941
10050.707763517828
12576.812514878811
10659.30106154693
6970.525618854239
6617.278649482567
10016.956629390315
12580.075869569288
10698.997759699556
6992.832659820636
6583.460460121687
9960.250253707201
12570.330508986774
10740.147321241775
7019.0065525778
6564.662643034773
9931.684724293318
12577.863046868211
10785.65547295278
7056.356317562619
6541.036849145514
9875.827714899508
12573.63856716616
10828.771988007067
7087.984035966878
6527.983430383615
9857.543987935065
12605.378044292695
10930.58418400099
7201.061511166276
6587.975512501659
9901.845145445484
12695.61203665877
11063.308842576605
7323.191442870074
6650.582748720974
9911.702264750274
12684.480867920027
11034.631554440446
7227.660087068091
6480.418918182721
9716.616239144354
12541.139130728143
10960.379059359915
7171.154877085076
6394.6552747077085
9620.302572286437
12494.491040049916
10975.60059733398
7195.428871563539
6373.175248286158
9571.173437973672
12473.189827584009
11006.490708171214
7226.788369034335
6358.5572074123875
9539.679830036144
12480.18592359852
11051.864749415488
7261.321814217784
6347.090762506815
9493.389367269203
12462.483341989917
11092.47786909078
7307.4781665179935
6348.968309041061
9473.16103853715
12467.780705425825
11133.627430633001
7343.933861724599
6325.856605274273
9383.262322337905
12400.54665810426
11207.924629202442
7659.428734711259
7050.1425326040435
10696.963750954123
14324.674227794914
13719.321932711833
10492.400585699152
9235.360829277139
11251.510530890291
13184.89172278544
11359.312994398237
7527.8887185917765
6496.892153846283
9561.763353557988
12669.281681690418
11493.624626830177
7660.188694022739
6433.7484757600405
9396.472203310992
12532.779578301857
11436.404161024591
7634.9535745326975
6372.728213397052
9324.387827442626
12498.626112774147
11453.056210643794
7660.27810100056
6369.174286028659
9298.07982421873
12515.322865882263
11521.676066121587
7731.937793724274
6386.921571126172
9281.02544319933
12514.317037381774
11572.705098713053
7793.0921665539945
6398.477423009565
9257.511408032347
12523.52595609736
11636.586384366321
7855.230016139748
6417.9010889412275
9258.003146410365
12548.649316865125
11701.674664220174
7928.431979230879
6449.685269556674
9261.713535989946
12577.170142790097
11777.514133157032
8014.396788405989
6496.825098612917
9276.398632097082
12625.628724769203
11892.960893268693
8133.442179374955
6573.513933839075
9336.636583404133
12718.410816003183
12034.536842648607
8298.196887755024
6703.6457900578735
9421.662619312123
12819.530107918992
12190.88729511348
8453.876787886236
6805.279172096154
9498.418509771647
12903.907943237775
12301.126098767054
8562.59567291685
6846.920472016392
9460.711116875544
12858.891529904788
12257.830769757125
8459.174151322146
6651.275652799089
9199.419224193005
12584.076831826787
12027.116063489446
8248.978346464437
6411.419083049189
8952.34304098404
12389.571951576705
11907.98126554266
8157.2020837309465
6294.8100322258515
8823.395827221373
12299.874401077557
11883.774326297562
8161.270101221812
6264.85869465574
8753.367811842896
12249.404162097475
11899.062919504991
8191.601418447664
6256.342680018268
8709.401930499307
12241.536348049207
11936.591498445452
8240.909366716072
6252.006441593939
8683.406851697786
12219.676341971915
11957.579786488985
8280.851934057706
6265.350433033756
8653.85784552787
12213.820184924625
11996.94120847478
8327.522376480387
6260.477752742499
8601.532411757995
12161.181826732378
12011.08986271499
8360.737068740973
6258.175523063604
8573.592731188863
12155.236262707265
12037.979011294725
8389.414356877132
6249.838322381774
8526.229384688066
12128.749445527726
12064.331718007532
8436.040095810902
6246.66437466912
8474.641558485218
12088.404546785898
12076.58047396904
8456.424886754143
6229.587641905266
8421.064427025847
12055.838055114515
12096.384119556442
8493.305265105399
6220.021095278394
8377.858504993737
12020.701112830773
12104.96718942728
8533.78427431396
6211.862708552207
8331.545690482342
11991.576789805507
12128.414169360896
8562.662728150217
6213.159109730615
8292.094861518724
11953.2211963202
12141.2664224227
8598.246705323065
6218.188252233059
8251.794666265807
11939.36311475791
12178.638539151973
8636.535243575006
6211.348618429735
8212.746168702384
11899.912285794293
12187.445126467363
8682.445726686206
6218.657638866621
8180.00086307536
11872.285529647534
12203.583085964096
8712.642933445328
6221.9656970460055
8136.191443942958
11843.407075811278
12230.963972921845
8750.506788552617
6211.482728896467
8090.705643976408
11816.942610376193
12250.074714431134
8793.891524540368
6215.148414987138
8057.133323804537
11777.268263968022
12257.47314184584
8833.364705248441
6225.765493603408
8015.424968650934
11742.913632740216
12278.729650822837
8884.751365751192
6235.488502441466
7996.023654463727
11727.557984299421
12295.940494053424
8915.708531821792
6237.433104209078
7951.230758575292
11697.3607775403
12324.774244400769
8954.131180540464
6238.528339687388
7918.3513424815355
11666.761239380985
12325.176575800966
8990.273951324696
6246.6196711802095
7871.479734358756
11640.095608245803
12356.737238971858
9033.83750126809
6252.945214861062
7838.242690353715
11609.741939275496
12391.225980666397
9083.9948158258
6261.125953331703
7790.611122919456
11562.982089874995
12393.394099878562
9127.446607046915
6273.888799415684
7772.685023866299
11542.194967531559
12410.493184386873
9166.428049376971
6284.327064076312
7739.20211067225
11512.467147406
12414.36003617764
9207.01881730781
6292.86543045824
7696.219706084694
11472.79280099783
12451.665097673547
9261.914701690042
6309.293962632891
7658.802885866509
11436.560623235777
12452.335650007208
9294.592952083702
6322.213270928058
7635.400609421803
11410.565544434256
12475.112077607166
9350.360554499694
6337.255994946479
7586.986730931608
11370.15359045906
12499.788403485823
9409.43621509507
6392.643617706731
7614.814652778466
11382.983491776407
12527.124586954664
9449.177616736606
6378.874943122261
7552.341527025882
11320.376255557092
12510.76311001338
9450.004631281452
6342.575710126843
7473.57397956538
11235.149053949006
12502.604723287193
9476.379689738715
6346.710782851074
7441.52157801647
11216.753568262287
12512.148918169609
9506.800413942387
6348.901253807695
7421.7626359179785
11200.436794809913
12530.611459089692
9556.108362210794
6370.560094184887
7380.948350542588
11163.288195525194
12554.371363445684
9628.058627612429
6451.339298646367
7369.973644015032
11113.577915856591
12572.900959599134
9683.289788161492
6459.140057461269
7351.198178672574
11095.182430169873
12581.72989865898
9685.703776562665
6433.547310059943
7386.558638400869
11375.786230061798
13347.5006636978
11090.95795046782
8401.014912249437
9872.273787531112
14172.57060677655
15598.477792558408
11828.09613085939
7340.067009933831
7393.778251859934
11057.765609951688
12806.253171712538
10106.05068278917
6770.05282283459
7454.977328178565
11152.939337842387
12786.449526125138
10026.03143763917
6667.3689088069095
7332.825044730312
11053.764647694188
12754.352421087317
10049.590176295063
6658.718783702706
7270.8660091002
10980.383870647416
12743.042438392931
10089.845668059072
6696.940266721281
7271.938892834055
10998.533487145125
12780.347499888838
10138.728933182829
6716.051008230568
7246.301441943818
10957.696850025279
12832.047084813963
10241.50225418833
6788.627122476951
7276.990387080955
10944.397562074371
12821.92174457571
10285.624597743106
6856.241149454254
7278.040919070354
10935.523919525614
12876.88468419131
10407.285142813344
6962.836618761614
7327.371219083217
10978.238103179707
12963.587100933446
10509.611428929738
7048.332041303163
7405.937600843621
11055.75395295071
13067.880340561907
10647.901671874723
7179.5144295113605
7489.488421617559
11149.631279663
13236.345438521557
10870.368584438394
7407.234002022029
7642.03907752503
11253.70100184691
13362.230463293847
11034.653906184902
7527.039352302475
7729.3449913674585
11321.136214868571
13419.361522121611
11078.016290428197
7515.952887052642
7605.538678829513
11086.733470765766
13188.468001898289
10859.438581399749
7274.352881235228
7306.472338017505
10781.833324650923
12941.347115200415
10685.944340937656
7111.095739733665
7112.4815478898945
10614.642276125227
12823.7769393655
10616.497470915017
7056.155151862521
7053.003555894323
10520.720245924025
12784.236703424061
10638.91627060369
7074.394175338051
7037.15616907551
10497.362672968231
12805.58261937888
10698.058986432432
7093.057881958232
7001.52748841375
10470.540579621862
12816.333808461883
10745.623498633326
7138.722495880425
6995.134889499533
10431.87206171418
12808.711863602623
10779.642853694302
7173.010071874866
6966.502304852284
10404.804099178804
12845.033448342498
10845.781665537557
7206.671799024559
6973.297235166698
10392.689453684026
12842.910032619242
10868.088706503953
7225.782540533846
6939.568452783639
10338.888804780103
12844.228785542105
10930.092445622975
7215.746607273413
6753.601938915484
10395.930456630047
13238.424150755902
11128.397122430459
6952.018374445245
6495.9086770902495
10315.553583568762
13218.396987723945
11084.38653759796
6892.585085938584
6444.723182287596
10302.2319438734
13235.071389087605
11131.191090487373
6923.363438053541
6416.090597640347
10244.989126323359
13244.839101414575
11179.224989321827
6942.809455729659
6394.096481096325
10208.756948561306
13240.882842645984
11233.964411492874
6984.718976583359
6365.150972026703
10158.689040981417
13244.839101414575
11284.546409195234
7018.648924666515
6352.499884664999
10128.156558055469
13245.867281659519
11318.923392167497
7047.639137225049
6333.098570477792
10089.957426781348
13239.295868789659
11354.932052484995
7062.726564732381
6297.827517727318
10048.427885583387
13244.325011292101
11395.075785526727
7090.733300534881
6280.48256403
9999.052882081614
13229.461101229323
11435.755960435386
7123.590364884182
6246.843188624763
9946.213358189269
13225.95187734984
11482.001719713417
7147.12675179562
6226.301935470336
9897.218334343235
13208.696330630342
11523.508909166922
7200.055682665788
6247.133761302682
9926.454416090777
13295.44345086139
11649.59509963931
7322.029152158399
6318.860509259762
9967.134590999436
13368.64541395252
11763.007851005537
7407.412815977671
6314.300753390879
9887.316511549534
13264.106305135048
11684.55322796741
7313.490785776471
6150.037783388828
9700.902962792274
13146.826701978052
11637.189881466615
7281.550142949837
6094.091367017194
9627.05279911194
13104.470146235246
11656.613547398276
7318.54228002337
6080.434451155002
9583.913932313197
13103.933704368319
11711.062396891404
7362.977548000521
6075.494715630379
9537.690524779622
13081.179628512817
11749.127417698792
7398.4050629621825
6063.692994557977
9513.908268679175
13081.559608168556
11791.975711819616
7447.511845530492
6060.787267778786
9472.088154803296
13066.53923589459
11838.355581564378
7516.265811475017
6070.979663250407
9390.90661894162
13002.769708963599
11894.681977591752
7788.822983363031
6727.405694413865
10609.300209200408
14846.095722448317
14382.22996976733
10665.403087783228
9149.887758480043
11559.361107273235
14019.997599124623
12134.627954319472
7683.23334255616
6206.900621283129
9518.40096931469
13207.019949796195
12186.394594477964
7876.553580350111
6213.159109730615
9364.084525595252
13046.176796695805
12103.782546971148
7857.755763263198
6183.766565771886
9319.269277962361
13022.551002806546
12125.73196002626
7881.672129830376
6174.200019145014
9286.7921932688
13028.653029042844
12182.281873498187
7941.66421194842
6174.624702289665
9237.551300233758
13008.379996821881
12232.819167711636
7997.387110875501
6185.644112306132
9213.992561577865
13008.201182866238
12285.703395092893
8047.410314966478
6182.4031093601125
9192.467831667404
13004.624903753389
12328.037599091245
8134.537414853266
6239.131836787682
9199.240410237362
13031.849328499953
12432.55435616426
8250.833541254227
6277.666244228631
9219.133462802585
13091.260265262159
12532.086674223743
8346.744876711951
6366.0673935493705
9286.501620590881
13193.027757767173
12704.195106529607
8536.265317948499
6496.7356916350955
9371.013566376396
13308.027482989728
12873.353108567371
8707.457328731696
6612.584783146952
9433.039657239873
13365.113838328582
12956.747467130122
8790.181134960787
6629.750922888627
9383.396432804637
13263.569863268121
12850.35316352286
8636.110560430356
6373.666986664175
9063.766487093746
12978.674528440777
12609.468413528015
8413.218964722033
6136.649088460099
8800.351178687952
12779.028746965974
12510.628999546649
8331.836263160261
6004.527926984779
8660.898645031291
12667.761763067456
12476.743754952402
8338.050048118836
5978.622255161078
8610.160185117744
12644.940631978588
12503.901124465601
8392.118917956224
5994.290828024248
8564.920254340203
12613.469375785515
12528.62215383317
8425.177148005623
5996.727168169877
8558.460600192619
12620.152547377653
12576.544293945348
8489.796041225916
5997.889458881553
8502.424776843163
12581.305215514329
12607.076776871298
8543.060248262913
6012.082816610672
8465.320881047355
12572.051593309832
12653.322536149328
8566.104896796334
5970.843848090631
8397.103356969757
12513.825299003756
12648.785132024901
8611.791862462982
5979.7174906393875
8346.901338923137
12497.352063340195
12692.84042034631
8642.525511089028
5978.979883072363
8332.216242816
12493.395804571606
12724.132862583741
8700.14830829481
5959.220940973872
8274.213465954479
12476.162609596564
12764.835389236856
8743.421285560285
5974.934217325952
8225.017276408349
12409.487355886384
12767.294081126938
8767.941149227756
5950.973147269863
8171.887179838083
12386.509762586327
12803.995645522553
8838.08092332851
5974.5542376702115
8129.709438050919
12328.976372358367
12806.901372301743
8953.371221228985
6097.868811830141
7854.425353339358
11559.182293317592
12135.007933975212
8853.257757813664
6322.213270928058
8082.4131467834895
11755.832941035384
12339.034657363256
9063.31945220464
6478.250798970556
8169.80846760374
11839.830796698428
12482.152877110586
9223.581459949191
6586.790870045527
8210.935677401505
11861.646099286807
12542.547290628827
9292.581295082724
6628.543928688041
8231.58868927821
11888.647006588819
12595.29740754335
9369.270130308883
6659.299929058544
8198.977494117915
11854.605299783385
12628.556803292848
9420.701494300543
6669.805248952538
8182.57131368772
11844.234090356123
12655.960041995055
9477.519628705935
6690.994702696169
8122.266307147302
11783.392641948778
12646.773475023923
9508.946181410096
6684.1550688928455
8092.873763188573
11769.266339453023
12670.086344490808
9530.895594465208
6681.472859558208
8056.64158542652
11740.723161783597
12682.916245808156
9565.965481515585
6690.122984662412
8033.01579153726
11731.290725623456
12712.554658955893
9610.981894848574
6710.887755261392
8001.075148710627
11673.913797606683
12698.718929138056
9639.90505217374
6697.789633010582
7948.369735285013
11634.932355276627
12712.129975811242
9674.930235735206
6711.647714572873
7913.389255212457
11580.81878195033
12713.538135711926
9718.82906184543
6708.205545926756
7884.376690909468
11579.4329737941
12738.683848224146
9733.290640508014
6722.622421100428
7859.141571419427
11577.287206326391
12803.950942033642
9859.957976336238
6836.459855611308
7919.4689297043005
11584.707985485553
12795.34552041835
9830.990115522161
6771.885665879926
7806.1232335714385
11467.629548028654
12770.557435817414
9837.51682490311
6707.445586615275
7703.349912565936
11391.611265136155
12738.125054612763
9869.14454330737
6753.199607515288
7711.329485336481
11406.184602521016
12809.91885780321
9956.159884471881
6784.559104986085
7675.119659318884
11352.942747228473
12792.685662828168
9961.524303141154
6771.170410057356
7625.208213950184
11322.253802091338
12807.549572890946
10000.148117559924
6765.850694876993
7571.452268535169
11252.359897179593
12800.352311176339
10033.27340284269
6754.607767415973
7534.191910528173
11325.673618993
13147.899585711908
10858.790380810546
8194.127165571113
9520.859661204775
13844.961088295113
16025.731387821603
13186.27753094167
8852.85542641347
8264.333994905233
11185.461126024858
12783.566151090403
10237.07660878618
6991.424499919952
7628.583327362934
11253.61159486909
12910.457004363181
10238.64123089805
6893.881487116992
7478.379604623271
11116.371883913504
12872.526094022525
10259.78598115277
6907.359589023542
7446.170740863174
11082.106659663517
12872.794314955989
10305.472946819418
6942.4294760739185
7448.607081008802
11082.352528852527
12920.001199245597
10369.15306677259
6972.738441555315
7442.035668138942
11076.161095638407
12948.387914703837
10453.35208813573
7046.610956980105
7445.388429807238
11069.209703112807
12997.897028672342
10523.111882580744
7105.708969319937
7478.7148807901
11090.466212089803
13055.408067155848
10635.608212424304
7211.052740937798
7538.259928019039
11120.574011871102
13124.050274378094
10751.45730393616
7323.7949399703675
7615.50755685658
11195.877038941031
13239.586441467578
10910.646427946858
7481.821773269388
7734.798817014554
11300.416147758502
13390.527771774267
11099.25044766074
7645.905929315798
7850.513798059678
11404.619980409143
13523.185375116513
11253.94687103592
7778.1835530023045
7935.651592689943
11460.097010147216
13589.391242193133
11335.62014527561
7812.4040737633795
7871.032699469651
11312.486089764368
13414.332379619167
11151.888805852986
7587.813745476455
7577.956626171664
11003.786147092122
13152.638155536433
10941.625945761913
7384.74814709999
7356.719059553035
10785.208438063675
12989.00103437913
10840.797226524022
7313.5801927542925
7270.709546889013
10699.914181222222
12959.966118331686
10867.172284981285
7326.946535938566
7240.847616296723
10651.723820176581
12950.42192344927
10891.826259115489
7351.064068205842
7230.141130702631
10627.896860587223
12961.910720099297
10947.347992342471
7383.585856388314
7209.130490914642
10586.277912411442
12948.186749003738
10970.727917042723
7410.407949734682
7182.889542924112
10531.337324540296
12926.304391181993
10993.012606264665
7422.455539996093
7144.332783738707
10474.228617456987
12902.768004270554
11013.911487330377
7442.549758261413
7129.133597509098
10432.54261404784
12878.873989447831
11034.720961418267
7466.130848661763
7093.728434291892
10364.43684869252
12850.48727398959
11036.442045741325
7452.675098499668
7027.768436404281
10265.485675988875
12777.285310898462
11012.168051262863
7404.261220009473
6917.9543158953575
10140.517072739252
12696.394347714704
10978.640434579902
7364.497466623482
6835.54343408864
10043.689315758862
12639.665620287136
10956.579262802514
7348.203044915563
6785.699043953306
9987.83230636505
12623.661771257135
10983.066079982053
7359.937710754599
6757.737011639716
9946.72744831174
12623.862936957234
11027.65781017039
7391.207801247573
6749.422162702342
9924.196889900792
12632.669524272624
11081.19023814085
7450.909310687699
6767.8623518779705
9912.126947894925
12658.17286469613
11151.911157597442
7508.330942193383
6773.0256048471465
9892.144488351882
12666.152437466675
11190.02088189374
7538.617555930324
6758.184046528822
9861.187322281281
12665.41482989965
11234.523205104257
7590.339492599905
6774.925503125847
9852.783066366084
12686.26900747645
11301.176107069983
7651.046830540518
6778.993520616713
9831.124225988893
12688.32536796634
11349.232357648893
7702.254677087627
6796.360826058487
9819.076635727482
12709.045435076408
11406.96691357695
7755.652994591355
6807.737863986238
9805.106795442915
12701.535248939426
11433.744303434409
7778.272959980126
6785.67669220885
9753.07193435096
12682.782135341424
11460.901672947606
7796.3778729889245
6760.1957035298
9714.202250743181
12680.949292296087
11497.424423387578
7833.146492617905
6755.926520338836
9698.846602302385
12703.368091984761
11565.217264320525
7903.822708585586
6797.478413281252
9716.750349611086
12738.303868568406
11642.599003624799
7989.4969450827775
6828.055599696112
9719.030227545527
12764.500113070026
11702.635789231754
8031.562928147666
6829.955497974814
9690.956436509661
12750.083237896353
11737.03512394847
8079.93210314895
6833.531777087663
9638.273374828503
12715.840365390823
11761.487932382577
8120.1652431685025
6839.499692857229
9636.641697483266
12738.527386012958
11806.660807926752
8137.75606605483
6797.031378392146
9545.178359172149
12663.336117665305
11780.95630180315
8125.306144393224
6731.42900841582
9451.72571560451
12605.40039603715
11765.33243242889
8124.546185081743
6699.153089422356
9403.513002814414
12584.792087649357
11799.754118890061
8169.5849501591865
6708.473766860219
9384.46931653849
12583.540389959859
11843.451779300187
8211.740340201895
6709.814871527537
9349.46648472148
12570.956357831521
11882.142648952324
8248.82188425325
6707.065606959535
9328.545251911313
12569.30232874183
11910.596419643929
8283.422384670066
6699.667179544828
9292.64835031609
12562.060363538309
11958.540911500564
8332.640925960652
6702.192926668278
9262.249977856873
12554.326659956772
11960.060830123524
8317.397036242131
6710.485423861197
9438.269965442416
13127.671256979855
13158.494312583724
10118.545307939687
9012.871564969011
12145.714419569305
15601.875257715614
14297.762727470725
9496.205687070571
6913.439263515385
9224.6766954275
12685.307882464873
12322.896697866523
8730.747846454125
6899.737644164282
9292.760109038367
12628.467396315027
12228.125301376022
8622.923031201724
6766.320081510554
9161.465962107894
12546.39179067514
12205.974722620813
8631.930784217213
6739.028601530624
9104.647827702502
12517.066301949777
12226.672437986426
8657.456476385174
6735.09469450649
9066.180475494919
12491.540609781816
12258.411915112963
8698.159003038289
6722.845938544981
9027.623716309514
12473.547455495294
12279.847238045602
8735.598175000927
6733.887700305903
9000.756919474235
12475.156781096075
12337.49238699584
8807.011998535634
6760.978014585736
8993.872582182
12481.348214310196
12400.45725112644
8885.064290173566
6798.305427826099
9005.249620109751
12521.022560718366
12488.836048702724
8990.989207147266
6869.674547871894
9050.802475309667
12587.384890006173
12608.462585027526
9128.13951112503
6973.587807844617
9121.478691277349
12677.03773701641
12744.249432593517
9282.992396711397
7096.544754093261
9208.672846397501
12768.85870323881
12882.293806349493
9416.879345998686
7170.461973006961
9242.513387502837
12806.364930434816
12934.909812797287
9441.399209666159
7109.106434477143
9082.27373150274
12608.149660605153
12745.389371560737
9248.883634672598
6875.530704919184
8812.443472438274
12361.49816054084
12567.558892674315
9110.816909172167
6723.04710424508
8646.861749513359
12230.628696755017
12499.698996508003
9079.680929145925
6672.934493176281
8577.41487949072
12186.416946222418
12517.423929861061
9111.062778361176
6674.879094943893
8542.099123251333
12161.137123243467
12539.708619083003
9151.206511402906
6680.13175489089
8508.839727501838
12140.327649155575
12573.39269797715
9211.422110965505
6702.349388879466
8493.864058716781
12135.857300264513
12597.86785815571
9249.97887015091
6710.574830839018
8464.516218246963
12104.564858027084
12621.337189833785
9291.150783437584
6713.592316340485
8432.262650997955
12081.609616471484
12647.131102935207
9339.60936541669
6719.180252454312
8393.929409257104
12052.328831235032
12656.563539095348
9378.389642046648
6729.99849677068
8360.155923385135
12029.977086779725
12681.575141140836
9409.570325561801
6726.690438591295
8325.153091568123
11992.180286905801
12695.142650025207
9451.256328970949
6736.86048231846
8288.071547516769
11954.629356220885
12703.926885596144
9484.426317742626
6738.9838980417135
8256.488532601421
11934.17751004428
12728.871432408267
9528.571013041856
6744.437723688809
8212.746168702384
11899.778175327561
12739.466159280082
9560.265786679482
6746.561139412062
8179.866752608628
11863.34483186541
12746.149330872218
9599.604856920821
6760.598034929995
8153.938729040472
11834.891061173805
12761.035592679453
9635.5241102605
6769.024642589646
8122.556879825221
11807.018435838037
12785.734270302568
9683.915637006241
6780.871067150959
8088.425766041967
11778.944644802172
12798.251247197539
9720.527794424033
6796.070253380568
8061.290748273224
11743.651240307241
12810.835279325876
9761.163265843781
6808.989561675735
8030.937079302917
11721.344199340845
12830.661276657735
9805.665589054297
6823.562899060596
8003.511488856255
11689.78353616995
12844.497006475569
9849.09502853096
6835.766951533193
7977.091726910082
11665.174265524658
12860.187931083196
9896.033691887103
6860.890312300959
7950.627261474999
11630.462006385565
12869.910939921254
9925.940325968306
6867.4170216819075
7919.781854126675
11603.818726994841
12887.41235582976
9979.048070794115
6892.31686500512
7883.482621131257
11558.66820319512
12897.962379212664
10028.914812673906
6914.243926315776
7873.022004726173
11545.167749544114
12914.480318365137
10061.861284001026
6926.336220066098
7841.975431677751
11510.097862493738
12923.97980975864
10104.173136254924
6946.944528453891
7819.064893611061
11482.448754602523
12941.257708222594
10150.418895532954
6961.786086772214
7781.737480370699
11443.444960528012
12945.973926302664
10185.578189561153
6975.510057867773
7759.676308593311
11414.790024136308
12962.000127077119
10227.286544714754
6989.85987780808
7730.037895445574
11373.461648638446
12949.75137111561
10262.26702478731
7014.804424620203
7715.352799338437
11350.618165805123
12968.862112624898
10302.94719969597
7035.77036091928
7686.0273106130735
11314.117767109605
12976.37229876188
10346.533101383819
7049.159055848009
7658.400554466314
11282.400641727525
12990.09626985744
10385.223971035955
7064.134724633065
7635.55707163299
11254.37155418057
12995.99713039364
10425.121834888678
7098.712873305425
7608.243239908606
11197.754585475277
12996.95825540522
10464.885588274668
7103.2055739409425
7570.491143523592
11162.550587958169
12996.757089705121
10495.976864812
7129.357114953651
7545.077210077908
11119.702293837345
12995.505392015624
10540.434484533607
7156.827408889224
7534.01309657253
11101.686787806368
13005.38486306487
10585.76382228897
7205.956543201989
7549.413448502237
11112.974418756297
13106.034768347117
10736.45928340665
7321.649172502658
7626.6834290842335
11190.93730341641
13182.097754728527
10824.771025749567
7390.738414614012
7632.807807064987
11119.322314181605
13083.459506447258
10731.586603115393
7279.270265015396
7472.791668509444
10968.31392864155
12997.293531572048
10688.917122950212
7230.141130702631
7391.051339036387
10900.029349330587
12990.498601257636
10718.041445975477
7247.620194866681
7371.582969615814
10845.20052018172
12969.107981813906
10750.049144035476
7271.53656143386
7344.894986736177
10820.792415236523
12984.821258165986
10800.318217315462
7312.753178209446
7353.992146729487
10776.044222837
12956.099266540918
10823.027589682055
7328.779378983901
7313.200213098552
10752.999574303578
12982.027290109074
10868.669851859791
7329.695800506569
7237.852482539712
10707.223201659108
13164.46222835329
11435.420684268556
8439.750485390483
8902.498650848705
12881.131515637819
15845.844548445291
14087.768088313114
9857.454580957245
8520.999076485525
10932.081750879497
12998.433470539268
11110.24750593275
7660.389859722836
7482.291159902949
10814.533926789038
13136.701361739799
11153.766352387232
7585.5338675420135
7347.152512926164
10682.412765313717
13052.234119443194
11136.95784055684
7581.7787744735215
7307.813442684823
10618.598534893816
13047.24968042966
11172.340652029592
7613.540603344513
7283.718262162002
10596.336197416329
13070.830770830009
11226.767149778265
7647.805827594499
7276.319834747295
10581.114659442266
13087.527523938123
11299.678540191477
7693.626903727878
7275.515171946904
10554.069048651345
13086.342881481993
11338.5258720548
7778.16120125785
7320.866861446722
10541.842644434291
13114.573134729044
11410.766710134354
7820.651867467388
7327.214756872029
10560.841627221302
13194.771193834686
11529.610935403221
7913.545717423644
7376.612112118258
10586.501429855995
13263.234587101291
11645.482378659533
8042.314117230669
7470.757659764012
10667.21357908411
13369.561835475188
11801.765775891039
8187.846325379172
7588.864277465854
10780.313406027963
13478.414830972533
11923.06869304999
8326.494196235442
7672.549208706523
10815.316237844972
13543.72662827094
12039.409522939864
8411.497880398974
7663.6085109244
10738.560347385448
13449.111693991625
11918.59834415893
8237.713067258963
7424.869528397266
10460.102314961234
13185.115240229994
11714.4151585597
8066.096373331115
7237.316040672785
10274.761649937827
13059.587843368989
11624.002352237983
7978.3434245995795
7123.545661395271
10150.575357744141
12974.22653129417
11630.976096508039
7990.659235794454
7092.7002540469475
10109.872831091026
12969.733830658655
11648.812788583373
8017.481329140822
7079.535076562772
10081.664929588429
12973.019537093585
11684.821448900873
8040.59303290761
7075.601169538638
10044.359868092522
12954.914624084786
11731.693057023653
8103.446138315933
7084.743033020858
10033.832196454072
12977.780458662566
11773.088487754881
8136.034981731771
7068.87329445759
9991.587399433542
12952.143007772329
11802.592790435887
8166.455705935444
7083.826611498191
9969.59328288952
12928.852490049898
11827.000895381081
8189.6568166800525
7058.502085030328
9931.572965571042
12919.934144012232
11852.459532315675
8222.290363584802
7035.904471386012
9875.492438732677
12903.684425793223
11883.72962280865
8259.774239036351
7043.414657522996
9835.683981857776
12885.803030228977
11902.706253851207
8260.288329158822
7010.870517596069
9789.572333046477
12871.83318994441
11932.054094321025
8305.438852958543
7000.946343057913
9744.935899369228
12838.931422106198
11941.844158392449
8317.866422875693
6990.686892352926
9713.107015264872
12831.15301503575
11984.625397279906
8364.022775175903
6977.745232313304
9695.896172034285
12824.380436465794
11998.61758930893
8387.872086509715
6967.575188586139
9636.485235272079
12802.542782132958
12040.415351440353
8427.121749773234
6963.551874584184
9604.097557556339
12786.114249958307
12072.132476822433
8452.446276241097
6935.299269592675
9564.177341959161
12766.914101471199
12101.145041125423
8487.538515035929
6943.457656318862
9532.661382277178
12759.403915334215
12113.460852320297
8516.059340960901
6939.635508017005
9488.181410811116
12735.040513877932
12139.411227632909
8555.063135035412
6931.99121141329
9452.373916193714
12710.632408932735
12165.853341323536
8596.570324488917
6933.555833525162
9420.299162900348
12702.652836162191
12200.520896973718
8634.523586574029
6928.996077656278
9402.373063847192
12705.08917630782
12285.256360203786
8756.430000833274
7022.135796801544
9448.752933591955
12776.681813798168
12391.0248149663
8873.754307479181
7098.0423209717665
9466.746087878477
12789.042328481954
12406.22400119591
8825.832167367002
6968.268092664253
9312.56375462577
12632.669524272624
12290.263150961775
8752.45139032023
6870.389803694464
9183.571837374191
12538.747494071424
12266.61500532806
8755.49122756615
6849.379163906475
9139.851825219612
12519.659104306593
12300.321435966664
8797.132527486388
6839.030306223668
9087.571094938648
12486.08678413472
12318.024017575266
8836.069266327533
6847.1663412053995
9070.31554821915
12489.350138825195
12354.904395926524
8866.691156231303
6845.802884793626
9046.868568285534
12468.160685081564
12379.670128783004
8913.741578309724
6854.251844197732
9024.539175574682
12467.937167637012
12427.592268895181
8965.597625446037
6848.842722039548
8944.542282169137
12448.64761217208
12600.706529701536
9458.900625574664
7821.9706203902515
10494.658111889137
14548.437541536992
15245.454340631288
12148.933070770869
9438.53818637588
10352.702182853483
12807.661331613224
12511.344255369218
9156.8615027501
7059.619672253093
9112.247420817306
12594.962131376522
12710.006560087986
9270.542475049791
6994.62079937706
8952.812427617602
12453.587347696704
12646.393495368184
9261.579425523214
6964.960034484868
8897.134232179431
12415.164698978031
12656.429428628617
9294.324731150238
6977.18643870192
8876.257702858175
12407.095719229666
12704.642141418713
9356.842560391731
6991.5586103866835
8854.241234569698
12395.383405135084
12735.37579004476
9413.7724535194
7017.911317099491
8842.685382686304
12401.776004049303
12793.490325628558
9476.78202113891
7043.124084845077
8836.248080283176
12410.068501242222
12839.803140139955
9549.492245852023
7085.1900679099645
8849.390906022896
12429.9839055519
12928.628972605346
9657.629985526799
7165.5445892267935
8888.014720441666
12491.965292926467
13028.29540113156
9783.22443762117
7260.941834562044
8962.669546922392
12581.573436447792
13177.113315714994
9960.473771151754
7395.834612349822
9054.803437567167
12679.787001584411
13318.063416250161
10105.268371733233
7505.536974136469
9108.581734726637
12727.686789952135
13397.546219533233
10187.053404695202
7519.506814421036
9038.531367603704
12612.06121588483
13275.326880851613
10037.073199400093
7304.237163571974
8768.634053305872
12337.894718396035
13041.639392571378
9840.75782784913
7095.382463381585
8545.54129189745
12146.764951558704
12925.387969659325
9779.111716641393
7018.492462455329
8443.058543569869
12066.566892453062
12906.612504316869
9781.726870742665
7000.946343057913
8390.934275500093
12019.583525608006
12917.296638166505
9822.27293518459
7008.858860595091
8359.552426284841
12003.624380066918
12942.71057161219
9871.916159619828
7030.651811439016
8331.344524782244
11975.639996008873
12971.633728937357
9920.084168921014
7042.721753444881
8314.603068185219
11966.475780782197
12993.203162336727
9963.625367119952
7054.143494861543
8282.237742213934
11933.663419921806
13006.122470631895
10005.043149595636
7063.754744977325
8246.542006318808
11896.268951448077
13023.646238284855
10042.079990158081
7072.404870081529
8214.131976858615
11864.01538419907
13034.688000045777
10083.52012437822
7082.1949341529535
8182.928941599005
11838.981430409125
13051.20593919825
10120.981648085315
7082.977245208889
8130.13412119557
11786.834810594895
13053.552872366057
10155.336279313122
7101.283323917785
8110.665751774997
11754.4247811347
13053.977555510708
10193.937741987436
7115.051998502255
8084.380100295556
11727.312115110411
13068.550892895568
10228.627649382073
7124.082103262199
8043.92344283145
11685.536704723443
13079.167971511839
10271.677109202994
7138.454274946961
8017.704846585375
11661.39682071171
13083.638320402899
10300.264990361333
7149.630147174615
7981.562075801144
11617.00625622347
13088.198076271783
10340.162854214055
7171.288987551808
7958.517427267722
11579.410622049645
13092.668425162843
10382.474706467952
7193.059586651277
7936.746828168253
11543.156092543137
13098.032843832118
10408.961523647491
7203.006112933888
7904.225039985781
11505.202830458025
13099.329245010525
10448.278242144375
7221.647467809614
7882.096812975027
11475.385603354645
13107.889963136908
10492.065309532323
7246.189683221542
7854.179484150349
11433.476082500945
13109.83456490452
10530.733827440004
7259.980709550466
7824.876347169441
11392.818259336742
13106.012416602662
10567.301281368886
7290.066157587309
7809.49834698419
11362.553997344256
13114.796652173598
10605.276895198453
7314.854242188245
7789.270018252137
11323.438444547468
13110.728634682731
10641.039686326943
7334.859053475744
7760.950358027263
11282.646510916533
13114.371969028947
10680.82579145739
7360.183579943608
7737.257508904638
11245.475559887358
13117.322399297047
10726.289239679485
7389.442013435604
7727.646258788855
11226.40952186698
13134.689704738821
10770.098658811887
7412.553717202391
7700.33242706447
11185.349367302582
13132.365123315469
10803.246295839108
7435.66542096918
7688.128374591873
11156.783837888699
13133.750931471699
10845.044057970532
7466.041441683941
7667.967101093185
11117.712988580823
13140.724675741754
10882.930264822277
7483.900485503732
7642.731981603144
11076.85399971652
13135.69553323931
10924.21393683123
7514.902355063243
7631.310240186482
11044.04163885613
13130.778149459142
10953.159445900852
7541.389172242782
7613.540603344513
11012.391568707415
13130.509928525678
10988.944588773798
7564.143248098284
7594.496917068591
10973.723050799734
13126.97835290174
11022.673371156856
7584.5950942748905
7571.139344112796
10943.794064974078
13139.741198985721
11063.37589780997
7601.984751461119
7546.083038578397
10906.690169178268
13138.914184440873
11094.422470858392
7618.1674144467615
7512.913049806721
10866.43467741426
13143.473940309757
11142.121093526017
7657.9088160882975
7517.226936486595
10846.273403915573
13165.378649875958
11221.089806686618
7738.196282171761
7552.2521200480605
10854.923529019778
13189.764403076697
11255.422086169969
7738.196282171761
7490.985988496064
10777.60884494887
13157.488484083235
11248.113065733083
7689.491831003646
7395.164060016163
10703.155184168243
13125.145509856406
11236.691324316422
7668.5929499379345
7357.4343153756045
10665.514846505504
13123.625591233444
11272.767039867287
7690.050624615029
7337.295393621373
10638.849215370325
13135.494367539211
11320.264496834814
7725.858119232431
7322.833814958789
10606.707406843592
13140.992896675218
11359.312994398237
7751.6520323338555
7309.489823518971
10574.632653550227
13143.965678687773
11404.68703564251
7747.695773565266
7222.005095720899
10564.596720289794
13289.34142462509
11526.146415012649
7726.931002966286
7262.640567140647
11110.694540821856
14628.523841920358
13419.428577354978
9879.314587034534
9717.599715900387
13518.424453547534
15904.38376717374
12902.186858914716
7737.77159902711
6726.4222176578305
10611.468328412573
13979.451534682696
12146.608489347516
7688.865982158898
6776.691290937816
10585.674415311149
13923.013379933045
12059.593148183007
7572.078117379919
6650.694507443251
10485.78446934038
13893.46437376313
12073.67474718985
7564.389117287293
6602.63825686434
10441.885643230158
13892.212676073632
12125.553146070617
7623.17420520475
6596.491527139131
10359.921796312547
13851.174873253689
12190.104984057545
7696.733796207166
6589.227210191156
10327.534118596806
13870.017393829512
12250.164121408954
7735.849349003953
6589.741300313628
10340.453426891974
13928.891888724791
12324.573078700672
7774.20494248926
6574.005672217092
10314.458348090453
13954.641098337306
12407.252181440852
7856.168789406871
6608.427358678265
10326.595345329684
14012.196840309722
12501.308322108785
7881.247446685726
6595.798623061017
10344.47674089393
14116.735949127193
12676.121315493741
8086.88349567455
6718.174423953823
10388.174401304055
14174.671670755348
12833.008209825543
8270.570131608263
6829.016724707691
10442.489140330452
14270.29243353515
12971.969005104185
8388.162659187634
6876.536533419673
10460.191721939054
14305.54113454117
13017.633619026377
8366.101487410246
6751.590281914507
10273.822876670703
14140.764074416647
12873.129591122817
8163.527627411799
6489.9854648095925
10043.823426225594
13959.670240839749
12681.083402762819
7903.889763818952
6249.301880514847
9852.00075531015
13857.992155312557
12644.068913944831
7858.806295252597
6160.36428932718
9790.689920269242
13848.582070896873
12686.26900747645
7926.688543163365
6174.758812756398
9750.859111649885
13839.373152181286
12741.321354069873
7996.090709697093
6191.74613854243
9743.840663890918
13872.140809552768
12806.901372301743
8041.911785830473
6173.820039489275
9705.26155296106
13861.07669604739
12832.270602258517
8035.698000871897
6121.874585375141
9664.313157118935
13867.446943217152
12885.199533128683
8084.670672973475
6112.062169559261
9606.198621535137
13835.998038768535
12902.522135081546
8103.244972615836
6087.810526825253
9552.956766242596
13810.762919278493
12936.31797269797
8142.673449834997
6068.00688123785
9496.83153591532
13785.483096299542
12960.793132876532
8162.56650240022
6040.424828580002
9442.136817233184
13758.661002953173
12991.683243713767
8196.742319672385
6017.5142905133125
9383.128211871173
13729.223755505534
13020.248773127649
8233.175663134536
6000.459909493913
9333.127359524651
13712.281133208411
13065.309889949547
8282.371852680666
5998.537659470757
9293.631827072124
13690.421127131121
13096.624683931434
8325.93540262406
5985.28307500876
9239.115922345629
13667.957623953536
13127.425387790847
8359.552426284841
5974.643644648033
9189.048014765742
13639.503853261931
13158.382553861447
8405.038226251392
5964.115973009583
9143.584566543648
13625.355199021722
13201.141441004449
8457.855398399282
5961.031432274751
9093.293141519207
13595.180344007058
13237.261860044226
8511.052550202912
5957.678670606455
9043.336992661594
13573.812076307784
13276.645633774477
8556.068963535901
5955.5329031387455
9005.271971854207
13550.409799863077
13314.710654581864
8606.919182171725
5946.458094889891
8944.519930424683
13516.189279102002
13339.677553138443
8645.967679735146
5944.535844866735
8902.051615959599
13491.088270078691
13378.994271635327
8709.312523521487
5951.531940881246
8857.236368326709
13460.868711575116
13411.538411562255
8760.386259601863
5954.661185104988
8819.238402752686
13439.478092131389
13443.456702644433
8803.83805082298
5946.323984423159
8764.431925348274
13407.045710926737
13486.215589787435
8862.667842229348
5954.437667660435
8719.326105037464
13382.168219347981
13519.027950647825
8918.211927200786
5953.834170560142
8665.48075264463
13351.859253866585
13562.815018035773
8983.076689610087
5966.41820268848
8628.0862841709
13327.96523904386
13591.224085238468
9032.474044856315
5970.642682390533
8583.449850493653
13292.984758971306
13621.845975142238
9078.496286689793
5965.434725932447
8539.394562172241
13264.106305135048
13651.79731271235
9136.923746695966
5969.927426567963
8473.792192195915
13217.055883056628
13695.51732486693
9221.659209926034
6023.750427216342
8492.947637194115
13244.593232225567
13750.413209249165
9279.036137942809
6010.294677054248
8410.916735043136
13178.365013404491
13747.14985455869
9285.182867668018
5961.389060186036
8315.966524596992
13089.203904772272
13724.842813592293
9313.122548237152
5963.311310209193
8274.3028729323
13061.39833466987
13770.619186236763
9378.926083913575
5971.693214379932
8221.061017639759
13026.887241230876
13804.593837808829
9438.225261953505
5990.133403555561
8190.059148080248
13000.534534518069
13840.110759748311
9503.090024362806
6005.824328163187
8150.071877249704
12970.449086481225
13869.570358940407
9564.110286725794
6023.236337093871
8115.56078381071
12946.733885614143
13910.831679204903
9635.56881374941
6055.400497365057
8094.304274833713
12926.147928970806
13947.600298833884
9702.4899366486
6062.061317212739
8008.093596469593
12866.915806164243
14080.056736476034
10146.06030536417
6957.896883236991
9448.81998882532
14882.529065910467
16723.5975532052
13009.631694511378
8920.715322579781
9650.43272381219
13364.26447203928
14090.562056370027
9999.544620459632
6357.506675422987
8187.645159679075
13017.946543448752
14248.544186180137
10088.817487814127
6273.508819759944
8006.976009246828
12845.793407653977
14167.362650318462
10076.814601041628
6237.23193850898
7920.541813438155
12779.073450454885
14182.561836548071
10133.632735447018
6259.538979475377
7893.026816013672
12752.43017106416
14213.966037507778
10204.107785714601
6290.093814145782
7863.433106354846
12722.367074771772
14251.449912959328
10279.991958140368
6334.171454211647
7850.022059681662
12703.278685006939
14287.369166299006
10359.832389334726
6372.303530252401
7830.531338516634
12694.785022113923
14341.12511171402
10451.407486368118
6435.9836502055705
7837.952117675796
12699.344777982806
14406.123984590053
10554.13610388471
6506.749273151073
7843.875329956452
12713.42637698965
14507.422090461505
10700.540030066972
6613.277687225067
7903.599191141033
12765.349479359327
14617.347969692704
10866.904064047822
6758.251101762188
7990.122793927526
12855.494064747581
14762.455494696558
11033.022228839664
6876.670643886405
8037.441436939412
12883.009062172063
14836.663286288178
11142.970459815318
6936.774484726726
8008.875907525529
12808.086014757875
14771.552654689867
11062.705345476312
6771.885665879926
7745.505302608646
12519.234421161942
14542.02259087832
10884.137259022864
6577.783117030039
7503.570020624402
12295.851087075602
14410.19200208092
10822.04411292602
6504.849374872372
7395.164060016163
12195.804678893648
14376.284405742217
10845.736962048646
6505.631685928308
7342.101018679264
12132.348076385031
14378.474876698838
10891.982721326676
6525.591793726897
7308.819271185312
12099.1557358689
14392.08708907212
10945.73866674169
6557.86771272036
7274.621102168692
12045.735066620717
14408.336807291129
11011.117519273463
6592.311750925988
7253.699869358525
12018.465938385241
14424.944153421422
11063.9123396769
6616.764559360095
7208.214069391975
11967.70512672724
14429.28039184575
11114.919020523908
6643.854873639927
7182.75543245738
11919.045379048035
14435.538880293238
11168.473800238824
6666.340728561965
7131.636992888092
11856.505198062086
14434.62245877057
11213.400806593992
6682.031653169591
7092.968474980411
11809.924162617226
14444.636040286547
11277.952644580919
6715.134586707901
7049.315518059197
11741.483121095076
14434.24247911483
11317.291714822259
6733.865348561448
7018.537165944239
11697.159611840203
14428.632191256547
11366.24203517938
6765.5154187101625
6975.957092756879
11644.230680970035
14442.400865841017
11410.319675245248
6781.34045378452
6938.808493472158
11585.445593052578
14432.275525602761
11466.042574172328
6824.300506627621
6913.327504793108
11537.94813608505
14434.71186574839
11509.986103771462
6843.0536202256235
6878.190562509366
11487.723766293975
14432.789615725234
11555.784828160386
6869.78630659417
6835.87871025547
11427.284649286825
14422.463109786882
11597.448479825078
6895.133184806488
6801.278209838654
11371.472343381924
14425.905278433
11655.920643320162
6929.644278245482
6769.762250156671
11314.095415365151
14413.053025371199
11699.305379307913
6962.635453061516
6744.281261477621
11265.480371174857
14418.32803706265
11750.692039810663
6992.340921442619
6716.453339630764
11225.738969533322
14423.021903398265
11802.659845669252
7035.569195219183
6701.075339445512
11172.430059007414
14414.684702716435
11857.980413196137
7077.21049513942
6683.775089237105
11127.279535207694
14406.414557267972
11901.767480584083
7106.983018753889
6653.711992944717
11080.631444529468
14411.533106748237
11950.449580007742
7146.053868061766
6634.7353619021615
11033.826891640056
14408.292103802218
12008.541763847084
7185.102365625187
6600.850117307916
10978.215751435251
14393.785821650723
12036.57085139404
7211.790348504824
6579.817125775472
10926.78438744359
14398.256170541785
12107.180012128356
7254.973918792477
6552.525645795542
10874.570712395993
14398.859667642078
12174.212893749822
7295.318817534307
6529.1904245842015
10819.294848358018
14377.647862153992
12205.0806528426
7342.033963445898
6510.482014475109
10758.609862161858
14372.350498718084
12264.737458793816
7385.619865133747
6491.550086921464
10707.424367359206
14346.9365652724
12293.526505652251
7429.250470310506
6507.57628769592
10718.17555644221
14407.599199724104
12408.570934363715
7521.451416188648
6500.826060870417
10647.409933496707
14359.162969489453
12425.826481083213
7535.82358787341
6450.177007934691
10547.27411833693
14279.16607608391
12407.587457607682
7522.747817367055
6394.342350285334
10489.74072810897
14278.383765027973
12467.490132747906
7570.602902245868
6361.015899302471
10426.172366878078
14277.467343505305
12528.62215383317
7613.562955088968
6353.0363265319265
10384.218142535467
14262.424619486883
12578.980634090976
7677.399537253325
6349.30358520789
10340.587537358706
14256.546110695137
12620.197250866564
7717.230345872682
6334.529082122932
10289.670263489517
14241.168110509887
12683.475039419538
7774.96490180074
6330.438712887611
10254.578024694685
14246.331363479063
12738.9073656687
7847.7421817472205
6351.382297442234
10222.436216167953
14231.66861911638
12745.56818551638
7870.429202369357
6445.013754965515
10576.264330895465
15113.221420433692
14294.700538480347
9975.158867258891
9042.375867650017
13312.855459792074
17002.636730985254
14547.632878736602
8520.149710196223
6355.025631788449
10181.711337770384
14425.94998192191
13177.269777926182
8257.516712846365
6477.80376408145
10177.933892957437
14309.07271016511
13093.808364130064
8183.443031721477
6366.380317971745
10052.22768214079
14232.875613316968
13083.861837847453
8205.995941876881
6351.672870120153
9994.716643657284
14220.068063744076
13154.091018926028
8272.358271164689
6344.341497938812
9954.617614104463
14212.401415395907
13204.337740461558
8341.067533620302
6361.798210358407
9925.023904445638
14207.148755448909
13272.108229650048
8416.683485112606
6367.9449400836165
9896.547782009577
14201.203191423798
13323.941925041907
8486.845610957815
6390.229629305557
9875.291273032579
14237.81534884159
13425.441196613456
8589.306007540943
6443.471484598099
9894.200848841769
14271.052392846632
13525.53230828432
8717.225041058666
6536.432389787721
9925.58269805702
14320.270934137217
13649.629193500185
8850.217920567742
6609.88022206786
9979.875085338961
14427.67106624497
13815.054454213912
9022.080483684598
6724.052932745569
10035.530929032675
14486.076174506687
13934.725694027627
9155.09571493813
6805.5473930296175
10062.598891568052
14506.528020683292
13980.323252716453
9188.511572898815
6714.598144840974
9861.299081003557
14284.239922075263
13797.150706905211
8997.672378739402
6486.677406630208
9591.602932405822
14044.226890114176
13638.408617783622
8892.350958865996
6341.234605459525
9417.326380887793
13904.483783779597
13586.97725379196
8875.56479878006
6298.162793894147
9328.99228680042
13841.071884759891
13600.589466165242
8910.321761408062
6287.858639700251
9278.387937353604
13807.83484075485
13634.675876459585
8971.319672026595
6285.444651299078
9223.290887271272
13768.540474002419
13657.98874592647
9024.226251152308
6300.085043917304
9195.530020657781
13770.283910069933
13714.739825098495
9091.214429284862
6312.244392900991
9145.32800261116
13733.895270096693
13745.518177213453
9142.444627576426
6315.798320269385
9115.488423763327
13699.406528402154
13771.401497292698
9183.974168774386
6313.898421990683
9054.289347444696
13668.851693731749
13805.845535498327
9243.809788681245
6311.506785333966
9011.575163790603
13626.942172878049
13814.316846646887
9283.97587346743
6307.528174820921
8937.43442743235
13577.008375764892
13840.177814981678
9338.13415028264
6301.604962540265
8891.859220487979
13548.711067284474
13869.615062429317
9380.222485091983
6299.325084605824
8827.0838650565
13506.309808052756
13902.673292478716
9423.182537935083
6302.767253251941
8792.081033239489
13474.704441392953
13911.792804216482
9460.577006408812
6307.684637032108
8737.498073279628
13439.075760731193
13942.28058365352
9516.568126269356
6310.925639978128
8702.808165884991
13400.250780612325
13960.698421084693
9567.194827460627
6311.1268056782255
8657.456476385174
13365.851445895607
13990.001558065602
9624.86232815532
6317.407645870167
8604.080510625901
13336.861233337073
14018.67884620176
9683.602712583866
6336.026649001437
8565.657861907228
13293.118869438038
14053.994602441146
9741.270213278558
6346.308451450879
8523.949506753625
13254.472703274812
14059.9178147218
9787.448917323223
6353.349250954301
8481.168267866167
13214.574839422088
14103.816640832025
9849.117380275415
6368.8837133507395
8426.80882535086
13173.671147068877
14115.663065393337
9911.590506027998
6379.992530345026
8388.095603954269
13147.519606056167
14139.80294940507
9957.076305994548
6397.270428808979
8344.912033666615
13102.92787586783
14167.13913287391
10032.066408642104
6411.240269093546
8301.303780234311
13058.313793935036
14190.563761063071
10082.983682511292
6424.8301297223725
8255.281538400834
13028.116587175917
14219.62102885497
10136.314944781656
6440.074019440892
8215.42837803702
12996.6676827273
14229.500499904216
10177.732727257338
6451.227539924091
8168.266197236324
12950.019592049073
14259.116561307499
10242.195158266444
6477.8931710592715
8131.408170629522
12906.947780483697
14276.05918360462
10290.184353611989
6489.739595620585
8093.566667266688
12861.283166561505
14303.797698473658
10356.546682899796
6504.156470794257
8047.075038799649
12826.146224277762
14319.332160870095
10398.813831664782
6520.070912846436
8009.211183692359
12792.126869216785
14339.135806457498
10473.736879078971
6551.072782405947
7959.635014490487
12730.078426608852
14345.774274560723
10513.232411531499
6568.261273892078
7929.817787387108
12702.8987053512
14372.194036506897
10568.441220336106
6575.816163517972
7879.816935040586
12655.244786172485
14384.621606424047
10624.499395430017
6607.935620300248
7860.639138297933
12618.610277010237
14407.465089257372
10686.190210126664
6630.555585689019
7819.869556411452
12565.569587417793
14414.28237131624
10739.320306696929
6647.431152752776
7761.0397650050845
12494.938074939022
14418.640961485025
10820.635953025336
6720.968392010736
7784.844372849986
12498.626112774147
14458.203549170918
10863.417191912795
6716.833319286504
7732.451883846747
12453.743809907892
14452.883833990554
10889.412270714316
6694.66038878684
7635.17709197725
12342.655639965014
14416.964580650876
10910.15468956884
6698.236667899689
7587.50082105408
12299.405014443995
14430.688551746434
10967.866893752444
6737.039296274102
7558.264739306538
12245.85023472908
14455.543691580737
11034.452740484803
6755.390078471909
7531.241480260072
12231.343952577587
14473.20156970043
11082.978377697274
6772.3774042579425
7498.0714914883965
12209.685112200394
14504.851639849145
11153.54283494268
6812.051750666113
7475.563284821902
12163.998146533746
14523.940029613976
11212.21616413786
6824.166396160888
7406.876374110744
12137.69014330985
14714.220430162006
11789.449964696165
7917.3008104921355
9029.568318077127
14278.808448172624
17356.353086990486
14394.366967006561
9320.99036228542
8642.436104111208
12338.051180607223
14578.545341318291
11510.857821805219
7162.4376967475055
7597.760271759066
12212.546135490673
14734.940497272075
11577.555427259855
7093.706082547436
7434.61488897978
12042.762284608161
14652.037877087341
11565.843113165274
7078.775117251292
7375.226303962029
11976.690527998273
14660.084505091252
11621.051921969882
7110.760463566836
7351.019364716932
11936.83736763446
14677.652976233123
11694.186829827648
7156.268615277841
7323.325553336806
11901.11927999488
14692.896865951643
11778.497609913065
7214.830185750746
7310.629762486192
11874.051317459503
14724.34577040026
11841.462474043665
7265.970977064488
7322.520890536415
11863.836570243428
14766.635270909701
11937.507919968119
7334.099094164264
7330.679277262602
11859.165055652269
14813.104547632283
12039.186005495312
7428.6916766991235
7369.012519003453
11884.06489897548
14882.75258335502
12165.071030267602
7547.155922312251
7425.830653408844
11923.716893639195
14990.622102096333
12327.568212457683
7693.984531639163
7517.0928260198625
12006.641865568385
15109.153402942826
12493.32874933824
7836.342792075014
7583.8351349634095
12030.938211791303
15185.462258513244
12602.762890191423
7905.633199886465
7561.684556208201
11940.771274658595
15086.645196276331
12516.23928740493
7765.063079007039
7328.6676202616245
11658.424038699155
14851.191920184127
12337.917070140491
7579.45419305017
7094.153117436543
11426.189413808515
14689.655863005622
12262.85991225957
7521.362009210827
7001.0133982912785
11319.750406712343
14643.6559729166
12284.116421236566
7533.789579127977
6954.834694246614
11259.579510638656
14630.535498921336
12325.556555456706
7566.378422543815
6926.067999132633
11197.93339943092
14621.326580205749
12378.932521215978
7607.930315486231
6909.840632658081
11169.814904906143
14635.832862357243
12436.421207955029
7655.22660675366
6898.150670307955
11121.892764793965
14629.350856465204
12492.300569093297
7703.171098610294
6874.614283396517
11067.041583900642
14614.688112102524
12533.271316679873
7735.178796670294
6844.372373148486
11014.246763497205
14618.89024006012
12596.750270932946
7781.357500714958
6824.702838027816
10960.289652382095
14597.83489678322
12632.446006828071
7812.627591207933
6795.757328958193
10899.49290746366
14579.618225052147
12674.266120703951
7843.9870886787285
6771.86331413547
10843.591194580937
14565.447219067482
12718.56727821437
7883.504972875711
6744.661241133362
10778.27939728253
14545.218890335429
12754.754752487512
7904.403853941424
6713.704075062761
10728.54676586947
14536.16643383103
12805.068529256409
7950.2249300748035
6683.708034003739
10652.327317276873
14520.050826078752
12857.326907792916
8000.069320210138
6674.834391454982
10624.208822752098
14511.847735863656
12902.633893803823
8036.435608438923
6654.606062722929
10562.13802839971
14492.781697843278
12944.31989721297
8066.945739620417
6623.000696063125
10503.08471954879
14471.502837121825
12990.09626985744
8119.9864292128605
6611.176623246268
10456.190759681554
14462.539787595248
13038.420741369813
8172.513028682832
6602.8617743088935
10405.765224190382
14452.749723523822
13093.45073621878
8225.10668338617
6590.098928224913
10356.43492417752
14434.33188609265
13147.094922911516
8284.02588177036
6584.39923338881
10303.058958418245
14411.823679426156
13181.471905883778
8316.815890886295
6559.097058665402
10250.733524648373
14399.932551375932
13231.830386141586
8361.161751885624
6546.3342125814215
10202.856088025104
14385.292158757706
13280.19956114287
8415.85647056776
6534.845415931394
10137.968973871348
14357.017202021743
13321.818509318651
8465.924378147647
6521.546127980487
10089.62215061452
14345.438998393895
13369.897111642018
8515.813471771893
6513.700665676673
10043.443446569854
14322.059073693643
13406.308103359712
8565.210827018122
6503.083587060402
9996.795355891629
14312.917210211423
13459.639365630075
8616.195156120677
6491.058348543447
9943.262927921169
14292.621826246004
13514.088215123204
8681.059918529978
6482.028243783503
9880.499229490666
14267.453761989327
13558.076448211248
8734.43588428925
6477.75906059254
9839.059095270526
14249.080628047066
13605.193925523035
8790.874039038901
6478.697833859663
9790.22053363568
14227.57824988106
13641.090827118258
8840.137283818398
6475.61329312483
9740.756123156087
14200.890267001423
13677.077135691303
8884.907827962379
6461.554045862442
9681.322834649425
14172.212978865264
13718.3384559558
8942.307107723607
6460.727031317596
9628.371552034801
14135.623173191927
13764.651270467195
9032.69756230087
6504.871726616827
9628.416255523713
14166.8932636849
13851.331335464876
9096.42238574295
6487.57147640842
9553.157931942695
14109.896315323867
13848.470312174597
9107.307685292684
6431.669763525697
9441.980355021997
14020.221116569177
13833.204070711623
9129.368857070072
6423.489025055054
9397.43332832257
13991.342662732919
13866.55287343894
9181.96251177341
6428.719333257596
9354.495627223925
13966.934557787725
13908.820022203927
9241.060524113242
6431.714467014607
9302.416062643058
13939.263098152054
13956.116313471355
9309.881545291131
6453.127438202791
9273.805829740266
13918.23010661961
13991.76734587757
9367.146714585628
6456.346089404356
9228.118864073618
13897.46533602063
14041.589384268449
9439.521663131913
6472.014662267526
9178.00625300482
13874.755963654037
14091.858457548435
9499.804317927876
6436.765961261507
9095.103632820086
13894.760774941538
14412.896563160011
10287.65860648854
7782.296273982081
10959.529693070614
16318.6509989084
17208.988035796647
12533.070150979776
8397.349226158765
9780.162248630792
13872.409030486231
14253.8639013605
9871.357366008446
6747.1422847679005
9237.21602406693
13939.576022574429
14370.808228350668
9859.265072258124
6625.325277486477
9060.391373680994
13796.882485971748
14320.583858559592
9861.94728159276
6597.363245172888
8988.485811768272
13746.792226647405
14345.21548094934
9917.96075319776
6602.97353303117
8945.972793814277
13720.372464701231
14382.766411634257
9978.802201605105
6621.905460584815
8911.14877595291
13693.61742658823
14424.56417376568
10055.021650197703
6647.565263219508
8872.56966502305
13677.457115347042
14475.973186012887
10134.392694758499
6694.3698161089205
8875.542447035605
13674.618443801219
14534.758273930345
10227.063027270202
6732.881871805414
8857.504589260172
13674.640795545674
14604.31690267526
10333.859662277659
6806.732035485749
8885.511325062673
13713.152851242168
14710.554744071334
10478.564855881317
6913.5510222376615
8939.043753033133
13780.364546819275
14842.787664268932
10637.619869425282
7033.334020773652
9004.757881731735
13853.633565143773
14985.034165982506
10815.986790178633
7146.880882606612
9047.986155508299
13891.072737106411
15067.690916978232
10908.433605245782
7181.593141745704
8990.54217225816
13788.72409924556
14983.96128224865
10816.366769834372
7003.382683203541
8723.908212650802
13513.976456400927
14769.116314544239
10647.365230007796
6815.560974545596
8503.83293674385
13319.06924475065
14661.313851036293
10595.933866016134
6741.822569587537
8388.877915010204
13220.14042379146
14638.246850758416
10618.844404082824
6735.161749739856
8325.108388079214
13155.767399760176
14640.258507759394
10667.504151762027
6759.033412818124
8290.105556262202
13130.912259925874
14683.33031932477
10742.628364876315
6782.9497793853025
8256.712050045973
13093.16016354086
14704.586828301768
10809.9518191757
6813.079930911056
8223.072674640736
13056.6821165898
14726.759758801432
10861.316127933995
6826.356867117509
8177.653929907553
13005.00488340913
14739.030866507395
10910.020579102109
6833.73294278776
8122.936859480961
12950.064295537984
14746.921032300119
10965.631719306914
6857.761068077215
8073.941835634928
12893.179105899228
14751.190215491084
11019.812347866577
6877.140030519967
8038.3355067176235
12853.370649024326
14759.817988850831
11058.212644840794
6885.343120735064
7983.886657224496
12794.607912851325
14771.999689578974
11111.856831533532
6907.672513445916
7943.854682905041
12746.328144827861
14780.314538516348
11164.048154836673
6923.832824687103
7892.155097979916
12683.497391163994
14783.242617039994
11212.104405415585
6939.076714405623
7844.7470479902095
12624.35467533525
14787.556503719868
11270.911845077497
6973.654863077983
7812.381722018925
12587.966035362011
14807.896591174198
11328.802863216742
6988.965808029868
7770.986291287696
12538.523976626871
14814.490355788514
11389.934884302007
7016.972543832368
7730.484930334679
12482.242284088408
14815.004445910985
11430.659762699577
7039.72661968787
7692.174040338283
12427.70402761746
14819.474794802047
11487.343786638236
7069.58855028016
7650.152760762306
12370.818837978703
14831.298867618903
11551.873272880706
7105.753672808847
7625.252917439094
12320.616819932082
14833.042303686418
11606.500936329478
7141.3600017261515
7591.971169945142
12274.281653676231
14840.597193312311
11656.635899142731
7160.358984513162
7550.799256658466
12215.876545414514
14837.490300833024
11709.564830012898
7197.731101242435
7524.401846456748
12168.244977980254
14844.151120680704
11756.257624180034
7218.250002652408
7486.739157049556
12118.35588435601
14844.59815556981
11817.76962492104
7256.538540904348
7455.469066556581
12070.478447732741
14851.527196350957
11868.172808667758
7281.7066051610245
7416.733493415534
12009.793461536583
14849.984925983541
11914.418567945788
7306.5393932508705
7385.776327344934
11958.920891156304
14850.789588783931
11980.557379789041
7353.768629284934
7360.518856110437
11913.792719101039
14858.299774920915
12036.503796160674
7386.7821558454225
7328.265288861429
11865.244730144112
14858.478588876556
12080.91671239337
7408.239830522518
7292.524849477393
11815.310933030956
14863.7088970791
12139.746503799737
7444.382601306749
7255.465657170494
11752.726048556096
14853.807074285398
12181.678376397895
7472.09876443133
7226.833072523245
11701.987588642549
14852.980059740552
12241.201071882377
7514.34356145186
7198.133432642631
11645.012992025971
14836.663286288178
12277.120325222055
7545.479541478103
7177.949807399489
11591.659378011153
14838.071446188862
12351.551634258227
7597.380292103326
7138.521330180327
11519.127967253682
14821.151175636194
12402.22303893841
7643.626051381356
7120.6399346160815
11472.144600408627
14816.524364533945
12447.46296971595
7678.204200053716
7097.662341316026
11410.364378734157
14802.26395157146
12498.514354051871
7722.103026163939
7077.255198628331
11364.230378178403
14801.347530048792
12548.224633720474
7752.680212578799
7045.426314523973
11308.216906573405
14793.367957278248
12607.88143967169
7807.017303349651
7031.210605050398
11259.624214127567
14787.645910697689
12657.859940273756
7856.571120807067
7045.515721501794
11286.334548751658
14873.65542336171
12798.854744297832
8002.639770822499
7134.02862954481
11330.456892306434
14944.62221200731
12906.232524661127
8064.531751219243
7084.2512946428415
11184.097669613084
14803.538001005412
12817.20552649564
7961.3784505580015
6924.101045620567
11025.55674619159
14711.404110360636
12788.952921504131
7939.473740991801
6863.684280357872
10952.064210422543
14684.246740847439
12828.716674890122
7981.271503123225
6844.081800470567
10888.96523582521
14667.147656339128
12878.292844091993
8021.526994887233
6812.901116955414
10825.463929827683
14653.937775366043
12934.820405819466
8083.955417150905
6814.868070467481
10792.8974381563
14651.680249176055
12988.419889023291
8122.1545484250255
6793.075119623557
10746.808141089457
14636.346952479715
12980.686185441755
8113.280905876269
6824.009933949702
10970.593806575991
15320.578553745576
14330.999771475766
10036.782626722174
9240.077047357208
13705.486202893997
17608.748985379814
15136.355475944934
9069.644995885492
6864.779515836181
10656.507093490016
14791.557465977368
13408.722091760887
8526.11762596579
6926.336220066098
10695.98027419809
14707.090223680761
13322.846689563596
8445.807808137872
6812.677599510861
10579.639444308215
14649.355667752705
13337.107102526083
8473.479267773542
6791.666959722872
10529.415074517141
14633.508280933891
13386.951492661417
8533.806626058415
6789.320026555065
10483.571646639306
14627.56271690878
13456.33130745069
8602.89586816977
6792.717491712272
10443.897300231136
14628.501490175902
13517.619790747141
8672.163924236766
6807.536698286141
10420.360913319697
14631.474272188458
13583.624492123663
8743.48834079365
6820.768931003682
10399.14910783161
14644.930022350554
13671.220978644013
8844.965260620746
6864.354832691531
10394.2540757959
14673.674365720079
13767.758162946482
8952.298337495129
6919.585993240595
10420.696189486527
14736.929802528597
13896.101879608856
9094.790708397712
7012.6363054080375
10472.663995345116
14817.999579667996
14054.486340819161
9258.87486444412
7114.984943268889
10536.65703972066
14914.067377336905
14194.81059250958
9397.43332832257
7187.069319137254
10549.933975927112
14936.48617702558
14262.15639855342
9447.836512069287
7142.187016270997
10410.079110870256
14774.816009380344
14124.402597475362
9286.568675824246
6910.399426269463
10133.498624980286
14526.801052904255
13947.756761045071
9145.14918865552
6736.771075340638
9942.167692442858
14382.051155811687
13886.669443448716
9117.745949953312
6668.553551263041
9835.080484757482
14314.660646278937
13889.798687672459
9139.673011263969
6645.911234129815
9782.263312609592
14284.709308708825
13935.351542872375
9202.928448072487
6656.573016234996
9747.819274403962
14264.369221254496
13978.088078270923
9267.726155248423
6664.530237261086
9702.109956992861
14242.084532032553
14024.87027941588
9322.107949508185
6659.188170336267
9649.6280610118
14214.122499718966
14044.15983488081
9365.000947117918
6659.344632547454
9610.490156470556
14179.52199930215
14083.275387677597
9424.568346091311
6640.278594527077
9533.778969499943
14143.021600606633
14114.478422937205
9459.30295697486
6627.381637976366
9469.562407679845
14101.894390808868
14139.46767323824
9503.626466229733
6619.960858817203
9417.795767521355
14070.154913682332
14161.305327571074
9541.713838781578
6608.986152289647
9356.75315341391
14021.651628214317
14186.696909272303
9600.029540065472
6613.031818036058
9294.07886196123
13983.452496940195
14217.318799176073
9647.974031922107
6619.513823928097
9259.701878988968
13957.52447337204
14248.097151291031
9703.674579104732
6617.904498327315
9214.707817400435
13915.994932174079
14265.643270688448
9749.428600004745
6620.83257685096
9153.419334103983
13873.146638053257
14296.39927105895
9795.473193582679
6619.960858817203
9104.401958513494
13833.695809089639
14310.033835176688
9846.166950007315
6627.918079843293
9060.41372542545
13796.72602376056
14340.231041935807
9904.326189080024
6630.130902544368
9005.383730576485
13759.62212796475
14365.08618177011
9946.660393078375
6628.566280432497
8954.220587518286
13723.188784502601
14403.888810144523
10025.137367860958
6647.788780664061
8905.76200553918
13677.121839180212
14419.08799637413
10070.913740505426
6656.774181935094
8867.741688220704
13643.88479517517
14439.741008250834
10119.171156784434
6666.206618095233
8813.203431749753
13613.397015738132
14494.502782166337
10182.650111037507
6664.0832023719795
8765.840085248958
13569.677003583553
14507.086814294675
10239.803521609727
6699.398958611365
8724.57876498446
13528.549793785787
14517.055692321741
10283.881161675592
6689.899467217859
8672.342738192408
13485.232113031401
14540.323858299716
10340.609889103162
6707.46793835973
8627.236917881599
13443.322592177701
14565.491922556392
10384.732232657938
6712.251211673166
8594.804536676947
13419.495632588343
14587.798963522788
10442.757361263915
6724.209394956755
8544.468408163597
13371.618195965077
14607.89318178811
10498.212039257533
6733.261851461155
8494.512259305986
13318.4433959059
14624.813452340777
10552.504426539474
6746.918767323347
8451.462799485063
13272.890540705985
14643.410103727592
10604.539287631427
6763.4590582202745
8404.054749495357
13229.036418084672
14669.606348229212
10664.10668660482
6774.746689170205
8358.479542550987
13194.547676390133
14697.7695462429
10723.450568133661
6793.1645266013775
8303.02486455737
13133.348600071502
14712.633456305679
10788.13651658732
6805.212116862788
8268.245550184913
13106.794727658598
14730.157223958638
10828.883746729345
6826.647439795428
8237.646012025596
13065.421648671825
14749.647945123666
10903.516221465616
6863.751335591238
8190.975569602915
13017.119528903906
14764.198930764072
10959.50734132616
6883.21970501181
8151.435333661478
12979.680356941266
14790.126954332229
11020.639362411424
6922.134092108499
8156.687993608474
13002.456784541224
14884.920702567186
11164.942224614886
7047.594433736138
8219.96578216145
13056.905634034352
14996.657073099266
11298.605656457623
7094.153117436543
8153.2681767068125
12920.068254478963
14873.677775106165
11213.087882171618
6984.562514372172
7994.995474218783
12771.742078273544
14811.204649353582
11196.25701859677
6953.448886090385
7918.641915159455
12713.80635664539
14815.719701733555
11246.235519198837
6963.5071710952725
7877.157077450404
12666.21949270004
14823.36399833727
11296.772813412288
6991.424499919952
7840.8131409660755
12612.463547285028
14834.361056609281
11364.72211655642
7031.992916106334
7818.081416855028
12574.912616600112
14839.881937489741
11425.675323686042
7054.188198350454
7774.853143078464
12529.650334078115
14865.050001746416
11480.347690623725
7046.186273835454
7717.878546461886
12565.614290906704
15207.456375057267
12335.436026505951
8497.39563434072
9681.188724182693
15066.863902433384
18000.46330695907
14426.687589488934
8922.011723758189
8317.106463564214
12455.174321553031
14952.020639422017
11833.281735573022
7417.56050796038
7863.813086010586
12526.47638636546
15064.31580356548
11848.525625291542
7328.600565028259
7702.724063721188
12376.876160726091
14993.863105042352
11845.016401412058
7315.25657358844
7660.702784145211
12331.457415992907
15004.323721447436
11918.620695903384
7377.8414580633
7645.838874082431
12291.604255629094
15028.061274058971
11982.636092023384
7413.045455580409
7627.9127750292755
12259.529502335728
15049.474245247156
12069.316157021065
7482.9840639810645
7622.995391249108
12236.775426480226
15077.123353138371
12132.661000807406
7527.195814513661
7622.257783682083
12215.027179125213
15108.013463975605
12229.399350809974
7620.581402847934
7643.4695891701695
12217.172946592922
15165.032764081094
12350.031715635267
7720.761921496621
7675.298473274526
12236.104874146566
15249.63411684443
12492.881714449135
7838.443856053813
7747.986346243185
12307.496345936817
15375.921473016915
12661.011536241955
7997.789442275696
7847.071629413561
12363.26394835281
15488.998948216315
12827.308514989438
8140.930013767483
7924.453368717835
12408.593286108171
15535.2670592388
12915.575553843446
8183.823011377217
7862.22611215426
12291.313682951175
15430.43737774341
12821.005323053041
8033.485178170822
7620.335533658927
11996.337711374488
15201.10847963196
12647.242861657485
7856.884045229441
7402.517783941959
11784.107897771348
15055.330402294447
12593.621026709203
7822.97644889074
7305.801785683845
11674.919626107172
15011.20805873967
12607.076776871298
7819.69074245581
7271.916541089599
11629.97026800755
15007.765890093553
12653.344887893783
7860.79560050912
7251.397639679628
11584.328005829813
15002.848506313385
12703.144574540207
7898.190068982848
7222.7203515434685
11516.222240474492
14993.572532364433
12767.361136360305
7946.358078284035
7199.541592543315
11460.946376436517
14987.425802639224
12824.425139954703
7984.624264791521
7191.7855372173235
11425.340047519214
14980.049726968971
12864.859445674354
8039.117817773559
7166.438659005005
11371.047660237273
14978.842732768386
12911.865164263865
8073.517152490277
7153.65346117657
11323.550203269746
14947.639697508777
12927.533737127034
8084.31304506219
7125.534966651794
11263.98280429635
14929.870060666808
12976.551112717523
8132.950440996939
7084.11718417611
11201.97906517733
14909.865249379309
13020.04760742755
8176.938674084983
7074.885913716068
11160.337765257093
14915.743758171055
13066.941567294785
8198.843383651183
7031.925860872968
11081.123182907484
14879.355118197815
13116.271867307649
8253.202826166491
7028.573099204672
11033.55867070659
14845.581632325844
13134.26502159417
8284.271750959368
7007.987142561334
10970.839675764999
14829.398969340202
13183.997653007229
8332.439760260553
6989.0999184965995
10911.49579423616
14823.74397799301
13244.392066525468
8377.187952660079
6963.931854239924
10863.305433190517
14810.556448764379
13271.683546505397
8405.418205907132
6940.127246395022
10796.585475991425
14774.704250658066
13323.226669219337
8454.860264642271
6919.183661840399
10755.860597593857
14770.6362331672
13352.462750966877
8490.108965648289
6907.024312856712
10696.136736409277
14741.780131075398
13401.770699235285
8544.893091308248
6899.514126719729
10648.72868641957
14732.280639681894
13441.489749132366
8578.241894035566
6873.094364773556
10595.442127638118
14712.454642350036
13482.125220552114
8631.774322006026
6867.662890870916
10546.290641580897
14694.305025852327
13536.90934621207
8675.248464971599
6843.634765581462
10480.442402415563
14671.059211618807
13579.087087999236
8730.412570287297
6841.69016381385
10429.34631459073
14645.019429328375
13609.776033136373
8766.063602693512
6822.288849626643
10372.1482005296
14619.56079239378
13655.395943569654
8818.612553907938
6816.9914861907355
10331.020990731835
14609.837783555722
13703.80982205985
8873.240217356708
6811.895288454925
10278.94142615097
14580.311129130261
13731.995371817991
8909.986485241234
6799.758291215693
10226.660695870007
14560.060448653752
13786.3548143333
8974.247750550241
6789.878820166447
10175.29638711171
14538.938050143488
13823.570468851385
9025.455597097349
6791.1528696004
10126.927212110426
14511.355997485638
13860.383791969276
9078.518638434249
6788.783584688138
10082.84957204456
14491.10531700913
13910.250533849066
9130.553499526202
6781.139288084422
10039.218966867802
14467.703040564424
13943.644040065294
9189.495049654848
6789.834116677537
9985.843001108527
14431.42615931346
13980.837342838926
9247.944861405476
6786.973093387258
9930.72359928174
14401.921856632454
14016.15309907831
9292.760109038367
6780.088756095023
9869.949206107762
14363.812132336156
14048.563128538506
9355.99319410243
6792.628084734451
9827.65970559832
14321.768501015724
14064.097590934944
9407.804537749833
6816.589154790539
9815.120376958892
14351.742190330291
14155.89620541289
9497.792660926898
6822.490015326741
9745.74056216962
14284.798715686646
14163.22757759423
9517.238678603015
6780.446384006308
9651.460904057134
14199.19153442282
14156.209129835264
9549.201673174104
6763.794334387105
9587.937246315152
14170.961281175767
14189.04384244011
9585.478554425068
6751.903206336881
9552.42032437567
14153.951603645279
14215.62006659747
9619.453205997135
6745.3764969559315
9506.6439517312
14138.081865082011
14272.125276580487
9696.879648790318
6755.166561027356
9470.076497802318
14121.496870696172
14307.59749503106
9751.730829683642
6776.244256048711
9429.686895571578
14096.954655284246
14368.505998671772
9822.116472973405
6735.966412540247
9360.999984860418
14180.080792913532
14805.54965800639
10770.9927285901
8250.788837765318
11393.175887248026
16726.950314873495
17504.70161494036
12583.160410304119
8328.997591614436
9775.803658462008
14056.319183864498
14548.772817703823
10192.998968720314
7035.099808585622
9469.5847594243
14164.009888650167
14632.837728600232
10164.433439306431
6914.042760615678
9309.546269124303
14033.54275626454
14591.196428679996
10167.54033178572
6888.181792280888
9242.491035758381
13982.558427161985
14618.51026040438
10222.480919656864
6894.529687706196
9195.641779380057
13948.80729303447
14644.214766527983
10287.859772188636
6917.84255717308
9163.879950509066
13934.926859727724
14702.217543389504
10371.835276107226
6952.219540145343
9147.160845656497
13919.682970009206
14737.287430439883
10444.67961128707
6990.530430141739
9124.227955845352
13907.27775183651
14799.40292828118
10534.84654841978
7028.953078860412
9110.928667894445
13921.09112990989
14871.532007638456
10637.083427558355
7105.664265831026
9140.991764186832
13952.137702958311
14976.495799600578
10775.865408881356
7200.860345466179
9193.496011912348
14015.080215344457
15109.734548298664
10947.92913769831
7333.205024386052
9272.6882425175
14098.876905307401
15239.195852183802
11097.998749971242
7440.471046027071
9309.210992957473
14131.197527789776
15325.294771825646
11205.421233823447
7468.522485318481
9248.570710250224
14026.457253272207
15239.218203928258
11101.083290706074
7288.389776753161
8982.003805876233
13747.462778981064
15017.01951229805
10927.700808966258
7100.299847161752
8760.632128790872
13554.522520842853
14904.120851054295
10870.48034316067
7021.979334590356
8642.23493841111
13453.492635904866
14868.916853537185
10872.737869350656
7010.155261773499
8586.444984250664
13403.760004491807
14882.841990332841
10924.660971720336
7026.58379394815
8545.697754108638
13354.519111456766
14909.95465635713
10997.527658644636
7053.942329161446
8519.25564041801
13325.931230298429
14932.216993834614
11053.161150593896
7073.969492193401
8473.63572998473
13286.927436223918
14960.894281970774
11111.923886766897
7100.903344262046
8435.48130219952
13235.831348399086
14967.331584373902
11165.88099788201
7107.899440276557
8379.981920716991
13183.438859395847
14980.407354880257
11213.26669612726
7123.188033483986
8335.546652739842
13128.78884420262
14982.575474092422
11267.760249109298
7145.092743050188
8296.654617387607
13086.320529737537
14991.49382013009
11303.768909426799
7149.9877750859
8243.748038261896
13030.888203488375
14995.271264943036
11348.360639615135
7158.392031001095
8198.262238295345
12972.259577782104
14995.315968431947
11400.820183851742
7178.7544701998795
8156.173903486003
12931.17707147325
15004.413128425256
11437.208823824982
7190.399729061095
8121.595754813642
12878.158733625261
15004.882515058818
11482.024071457872
7206.783557746835
8080.915579904984
12828.20258476765
15012.839736084909
11540.652697164143
7229.269412668874
8035.474483427344
12785.510752858014
15026.273134502548
11577.980110404505
7256.382078693161
8000.516355099244
12740.695505225123
15038.141910808316
11645.907061804184
7271.938892834055
7966.318186082624
12698.495411693504
15055.330402294447
11712.425853303177
7321.336248080283
7941.932432881884
12649.098056447276
15061.611242486388
11770.518037142521
7354.7297542965125
7912.048150545139
12601.533544246382
15071.714230980186
11827.425578525732
7385.977493045032
7880.979225752262
12563.222654249985
15081.996033429628
11871.771439525062
7412.710179413579
7836.521606030657
12492.837010960224
15068.853207689906
11924.521556439586
7433.966688390576
7804.871535881942
12453.520292463338
15071.915396680284
11974.097725641457
7465.884979472755
7775.1884192452935
12397.350358647152
15071.64717574682
12032.927517047825
7516.712846364123
7751.383811400392
12349.58468074616
15074.59760601492
